sample,time_ms,ir_raw,red_raw,ir_dc,red_dc,ir_ac,red_ac,time_s,ir_raw_minus_dc,red_raw_minus_dc
1040.0,10400.0,20254.0,24694.0,20254.0,24694.0,0.0,0.0,10.4,0.0,0.0
1042.0,10420.0,36918.0,43993.0,22506.3,27329.5,708.5,839.3,10.42,14411.7,16663.5
1044.0,10440.0,62173.0,66987.0,28952.2,33965.8,4971.2,5538.7,10.44,33220.8,33021.2
1046.0,10460.0,68096.0,64908.0,36668.4,40388.5,13575.4,13818.6,10.46,31427.6,24519.5
1048.0,10480.0,77367.0,71986.0,44077.1,46206.0,22284.4,20759.8,10.48,33289.9,25780.0
1050.0,10500.0,81776.0,74232.0,51081.5,51453.8,28559.9,24780.5,10.5,30694.5,22778.199999999997
1052.0,10520.0,83207.0,75237.0,57173.6,55933.6,31588.6,25857.6,10.52,26033.4,19303.4
1054.0,10540.0,84599.0,75877.0,62326.1,59694.1,31409.2,24577.0,10.54,22272.9,16182.900000000001
1056.0,10560.0,85525.0,76324.0,66697.8,62835.5,28943.1,21861.2,10.56,18827.199999999997,13488.5
1058.0,10580.0,86122.0,76581.0,70364.5,65436.5,25292.3,18564.3,10.58,15757.5,11144.5
1060.0,10600.0,86529.0,76750.0,73419.2,67578.8,21310.6,15279.9,10.6,13109.800000000003,9171.199999999997
1062.0,10620.0,86935.0,76885.0,75969.3,69344.4,17546.4,12344.9,10.62,10965.699999999997,7540.600000000006
1064.0,10640.0,87133.0,76937.0,78083.2,70785.9,14281.6,9889.7,10.64,9049.800000000003,6151.100000000006
1066.0,10660.0,87219.0,76994.0,79816.2,71963.6,11576.1,7910.1,10.66,7402.800000000003,5030.399999999994
1068.0,10680.0,87157.0,76998.0,81215.5,72918.5,9373.0,6344.2,10.68,5941.5,4079.5
1070.0,10700.0,86997.0,76945.0,82324.2,73685.5,7572.4,5106.9,10.7,4672.800000000003,3259.5
1072.0,10720.0,86920.0,76958.0,83200.2,74305.4,6082.8,4119.2,10.72,3719.800000000003,2652.600000000006
1074.0,10740.0,86953.0,76941.0,83913.2,74808.8,4861.7,3330.5,10.74,3039.800000000003,2132.199999999997
1076.0,10760.0,86990.0,76933.0,84494.5,75214.5,3886.1,2697.1,10.76,2495.5,1718.5
1078.0,10780.0,86986.0,76920.0,84964.8,75538.1,3118.0,2182.1,10.78,2021.199999999997,1381.8999999999942
1080.0,10800.0,87077.0,77007.0,85358.9,75814.4,2517.0,1767.2,10.8,1718.1000000000058,1192.6000000000058
1082.0,10820.0,87140.0,77076.0,85694.0,76049.7,2058.4,1446.4,10.82,1446.0,1026.300000000003
1084.0,10840.0,87180.0,77088.0,85978.7,76245.2,1711.8,1200.7,10.84,1201.300000000003,842.8000000000029
1086.0,10860.0,87200.0,77136.0,86211.2,76411.1,1438.9,1006.5,10.86,988.8000000000029,724.8999999999942
1088.0,10880.0,87299.0,77205.0,86414.5,76558.2,1214.9,853.1,10.88,884.5,646.8000000000029
1090.0,10900.0,87395.0,77262.0,86595.4,76689.9,1036.9,735.8,10.9,799.6000000000058,572.1000000000058
1092.0,10920.0,87441.0,77291.0,86753.5,76802.7,898.5,643.8,10.92,687.5,488.3000000000029
1094.0,10940.0,87503.0,77290.0,86891.3,76895.9,785.8,564.3,10.94,611.6999999999971,394.1000000000058
1096.0,10960.0,87500.0,77261.0,87007.4,76967.0,690.0,486.4,10.96,492.6000000000058,294.0
1098.0,10980.0,87482.0,77171.0,87099.9,77010.4,599.5,401.9,10.98,382.1000000000058,160.60000000000582
1100.0,11000.0,87432.0,77065.0,87166.7,77025.9,506.0,304.0,11.0,265.3000000000029,39.10000000000582
1102.0,11020.0,87254.0,76906.0,87193.3,77011.1,400.8,192.9,11.02,60.69999999999709,-105.10000000000582
1104.0,11040.0,87043.0,76742.0,87174.1,76967.7,268.3,70.2,11.04,-131.10000000000582,-225.6999999999971
1106.0,11060.0,86873.0,76658.0,87123.3,76911.9,110.7,-53.6,11.06,-250.3000000000029,-253.89999999999418
1108.0,11080.0,86790.0,76564.0,87062.2,76849.1,-45.3,-157.9,11.08,-272.1999999999971,-285.1000000000058
1110.0,11100.0,86764.0,76540.0,87005.5,76790.7,-167.1,-231.4,11.1,-241.5,-250.6999999999971
1112.0,11120.0,86794.0,76534.0,86963.8,76741.5,-234.3,-266.5,11.12,-169.8000000000029,-207.5
1114.0,11140.0,86858.0,76558.0,86940.5,76706.6,-243.4,-263.7,11.14,-82.5,-148.60000000000582
1116.0,11160.0,86945.0,76586.0,86937.9,76682.6,-204.0,-231.5,11.16,7.100000000005821,-96.60000000000582
1118.0,11180.0,86975.0,76572.0,86944.0,76663.5,-135.1,-184.3,11.18,31.0,-91.5
1120.0,11200.0,86958.0,76576.0,86947.2,76646.0,-66.0,-139.7,11.2,10.80000000000291,-70.0
1122.0,11220.0,86949.0,76559.0,86949.8,76629.9,-16.5,-105.0,11.22,-0.8000000000029104,-70.89999999999418
1124.0,11240.0,86950.0,76547.0,86949.0,76615.6,9.0,-81.3,11.24,1.0,-68.60000000000582
1126.0,11260.0,86925.0,76534.0,86944.5,76600.0,14.9,-68.2,11.26,-19.5,-66.0
1128.0,11280.0,86987.0,76579.0,86949.3,76595.0,11.6,-59.1,11.28,37.69999999999709,-16.0
1130.0,11300.0,87006.0,76611.0,86960.3,76596.3,15.7,-44.1,11.3,45.69999999999709,14.69999999999709
1132.0,11320.0,87043.0,76652.0,86974.7,76605.5,27.0,-22.0,11.32,68.30000000000291,46.5
1134.0,11340.0,87067.0,76692.0,86990.6,76619.9,41.6,4.9,11.34,76.39999999999418,72.10000000000582
1136.0,11360.0,87089.0,76707.0,87008.6,76635.6,56.4,32.0,11.36,80.39999999999418,71.39999999999418
1138.0,11380.0,87068.0,76706.0,87020.1,76649.5,66.2,52.7,11.38,47.89999999999418,56.5
1140.0,11400.0,87080.0,76686.0,87031.2,76659.0,66.6,62.7,11.4,48.80000000000291,27.0
1142.0,11420.0,87056.0,76671.0,87037.2,76662.6,60.8,59.2,11.42,18.80000000000291,8.39999999999418
1144.0,11440.0,87039.0,76639.0,87039.1,76660.1,48.4,44.5,11.44,-0.10000000000582077,-21.10000000000582
1146.0,11460.0,87027.0,76640.0,87037.8,76655.1,31.8,22.6,11.46,-10.80000000000291,-15.10000000000582
1148.0,11480.0,86999.0,76594.0,87033.3,76644.4,14.5,0.0,11.48,-34.30000000000291,-50.39999999999418
1150.0,11500.0,86973.0,76571.0,87022.8,76629.8,-4.2,-23.2,11.5,-49.80000000000291,-58.80000000000291
1152.0,11520.0,86981.0,76569.0,87014.1,76618.5,-22.5,-42.0,11.52,-33.10000000000582,-49.5
1154.0,11540.0,87028.0,76614.0,87013.2,76618.0,-32.0,-47.4,11.54,14.80000000000291,-4.0
1156.0,11560.0,87070.0,76662.0,87021.5,76624.9,-25.1,-36.1,11.56,48.5,37.10000000000582
1158.0,11580.0,87152.0,76736.0,87042.5,76644.0,-1.6,-9.6,11.58,109.5,92.0
1160.0,11600.0,87203.0,76793.0,87071.4,76667.6,35.9,26.3,11.6,131.60000000000582,125.39999999999418
1162.0,11620.0,87258.0,76799.0,87106.1,76690.3,78.0,61.6,11.62,151.89999999999418,108.69999999999709
1164.0,11640.0,87234.0,76802.0,87131.5,76709.5,111.7,85.2,11.64,102.5,92.5
1166.0,11660.0,87171.0,76748.0,87144.0,76718.8,122.4,92.4,11.66,27.0,29.19999999999709
1168.0,11680.0,87069.0,76692.0,87133.0,76718.9,100.4,80.1,11.68,-64.0,-26.89999999999418
1170.0,11700.0,86882.0,76623.0,87093.1,76704.5,42.9,48.7,11.7,-211.10000000000582,-81.5
1172.0,11720.0,86721.0,76576.0,87027.6,76683.3,-47.7,4.3,11.72,-306.6000000000058,-107.30000000000291
1174.0,11740.0,86600.0,76561.0,86951.3,76659.8,-151.9,-41.2,11.74,-351.3000000000029,-98.80000000000291
1176.0,11760.0,86543.0,76533.0,86878.3,76635.8,-242.1,-76.8,11.76,-335.3000000000029,-102.80000000000291
1178.0,11780.0,86508.0,76528.0,86810.8,76614.6,-299.8,-98.4,11.78,-302.8000000000029,-86.60000000000582
1180.0,11800.0,86531.0,76529.0,86757.9,76598.2,-319.5,-104.5,11.8,-226.89999999999418,-69.19999999999709
1182.0,11820.0,86553.0,76515.0,86715.1,76583.2,-304.5,-98.5,11.82,-162.10000000000582,-68.19999999999709
1184.0,11840.0,86529.0,76516.0,86679.3,76571.1,-266.5,-86.9,11.84,-150.3000000000029,-55.10000000000582
1186.0,11860.0,86556.0,76512.0,86653.9,76560.9,-219.9,-73.0,11.86,-97.89999999999418,-48.89999999999418
1188.0,11880.0,86578.0,76537.0,86638.4,76555.5,-169.8,-58.9,11.88,-60.39999999999418,-18.5
1190.0,11900.0,86604.0,76529.0,86631.4,76550.3,-120.1,-44.3,11.9,-27.39999999999418,-21.30000000000291
1192.0,11920.0,86621.0,76534.0,86629.3,76547.5,-75.1,-31.8,11.92,-8.30000000000291,-13.5
1194.0,11940.0,86615.0,76521.0,86625.6,76543.2,-40.9,-22.2,11.94,-10.60000000000582,-22.19999999999709
1196.0,11960.0,86579.0,76501.0,86618.2,76536.3,-21.4,-18.5,11.96,-39.19999999999709,-35.30000000000291
1198.0,11980.0,86554.0,76496.0,86606.3,76527.8,-18.4,-21.2,11.98,-52.30000000000291,-31.80000000000291
1200.0,12000.0,86515.0,76456.0,86590.5,76517.4,-27.3,-26.5,12.0,-75.5,-61.39999999999418
1202.0,12020.0,86463.0,76423.0,86568.9,76501.2,-44.1,-36.4,12.02,-105.89999999999418,-78.19999999999709
1204.0,12040.0,86440.0,76400.0,86546.8,76481.9,-64.6,-51.4,12.04,-106.80000000000291,-81.89999999999418
1206.0,12060.0,86453.0,76397.0,86527.5,76468.0,-81.8,-63.8,12.06,-74.5,-71.0
1208.0,12080.0,86454.0,76402.0,86513.0,76454.0,-88.3,-69.7,12.08,-59.0,-52.0
1210.0,12100.0,86450.0,76397.0,86500.3,76443.3,-84.5,-68.8,12.1,-50.30000000000291,-46.30000000000291
1212.0,12120.0,86466.0,76439.0,86493.0,76439.5,-73.8,-61.2,12.12,-27.0,-0.5
1214.0,12140.0,86501.0,76457.0,86494.1,76443.9,-55.4,-42.7,12.14,6.899999999994179,13.10000000000582
1216.0,12160.0,86529.0,76499.0,86499.6,76453.4,-31.1,-17.6,12.16,29.39999999999418,45.60000000000582
1218.0,12180.0,86553.0,76533.0,86509.8,76467.1,-4.7,9.5,12.18,43.19999999999709,65.89999999999418
1220.0,12200.0,86599.0,76574.0,86523.9,76485.0,19.9,35.3,12.2,75.10000000000582,89.0
1222.0,12220.0,86600.0,76588.0,86537.5,76503.0,41.0,57.5,12.22,62.5,85.0
1224.0,12240.0,86618.0,76599.0,86552.9,76519.9,56.2,72.4,12.24,65.10000000000582,79.10000000000582
1226.0,12260.0,86638.0,76608.0,86567.9,76535.9,65.3,79.3,12.26,70.10000000000582,72.10000000000582
1228.0,12280.0,86651.0,76595.0,86584.2,76547.3,70.5,78.7,12.28,66.80000000000291,47.69999999999709
1230.0,12300.0,86548.0,76531.0,86582.6,76547.6,67.1,67.9,12.3,-34.60000000000582,-16.60000000000582
1232.0,12320.0,86394.0,76447.0,86553.9,76533.6,36.9,41.5,12.32,-159.89999999999418,-86.60000000000582
1234.0,12340.0,86192.0,76348.0,86493.4,76502.9,-29.8,-2.6,12.34,-301.3999999999942,-154.89999999999418
1236.0,12360.0,85978.0,76263.0,86405.0,76461.4,-129.3,-59.4,12.36,-427.0,-198.39999999999418
1238.0,12380.0,85834.0,76206.0,86302.5,76413.3,-244.6,-118.8,12.38,-468.5,-207.3000000000029
1240.0,12400.0,85765.0,76150.0,86204.3,76365.1,-346.0,-167.9,12.4,-439.3000000000029,-215.10000000000582
1242.0,12420.0,85752.0,76151.0,86119.3,76323.6,-408.0,-198.5,12.42,-367.3000000000029,-172.60000000000582
1244.0,12440.0,85781.0,76152.0,86053.8,76291.3,-420.1,-204.3,12.44,-272.8000000000029,-139.3000000000029
1246.0,12460.0,85784.0,76173.0,86000.1,76269.8,-389.4,-187.2,12.46,-216.10000000000582,-96.80000000000291
1248.0,12480.0,85759.0,76164.0,85954.3,76249.3,-335.4,-157.4,12.48,-195.3000000000029,-85.30000000000291
1250.0,12500.0,85762.0,76170.0,85916.1,76234.5,-277.5,-126.0,12.5,-154.10000000000582,-64.5
1252.0,12520.0,85775.0,76193.0,85888.7,76223.8,-222.2,-97.1,12.52,-113.69999999999709,-30.80000000000291
1254.0,12540.0,85810.0,76194.0,85875.8,76217.3,-167.6,-70.7,12.54,-65.80000000000291,-23.30000000000291
1256.0,12560.0,85842.0,76209.0,85869.9,76214.8,-115.1,-47.7,12.56,-27.89999999999418,-5.80000000000291
1258.0,12580.0,85873.0,76200.0,85870.5,76213.1,-68.6,-28.1,12.58,2.5,-13.10000000000582
1260.0,12600.0,85894.0,76189.0,85872.7,76210.5,-31.4,-14.9,12.6,21.30000000000291,-21.5
1262.0,12620.0,85860.0,76176.0,85870.1,76204.7,-7.2,-10.2,12.62,-10.10000000000582,-28.69999999999709
1264.0,12640.0,85853.0,76177.0,85865.5,76199.2,0.9,-12.4,12.64,-12.5,-22.19999999999709
1266.0,12660.0,85832.0,76175.0,85859.4,76193.0,-1.5,-17.2,12.66,-27.39999999999418,-18.0
1268.0,12680.0,85839.0,76146.0,85857.2,76184.9,-6.9,-22.2,12.68,-18.19999999999709,-38.89999999999418
1270.0,12700.0,85831.0,76161.0,85853.0,76179.5,-11.2,-27.0,12.7,-22.0,-18.5
1272.0,12720.0,85841.0,76144.0,85851.2,76173.4,-13.9,-28.4,12.72,-10.19999999999709,-29.39999999999418
1274.0,12740.0,85866.0,76136.0,85851.7,76166.1,-13.4,-29.3,12.74,14.30000000000291,-30.10000000000582
1276.0,12760.0,85903.0,76151.0,85857.8,76161.7,-7.6,-29.8,12.76,45.19999999999709,-10.69999999999709
1278.0,12780.0,85961.0,76169.0,85873.6,76161.8,7.5,-25.6,12.78,87.39999999999418,7.19999999999709
1280.0,12800.0,85998.0,76177.0,85896.2,76163.7,33.2,-16.6,12.8,101.80000000000291,13.30000000000291
1282.0,12820.0,86051.0,76187.0,85923.2,76167.2,62.8,-5.8,12.82,127.80000000000291,19.80000000000291
1284.0,12840.0,86076.0,76191.0,85951.3,76173.2,90.5,5.8,12.84,124.69999999999709,17.80000000000291
1286.0,12860.0,86092.0,76191.0,85979.0,76176.4,111.6,14.4,12.86,113.0,14.60000000000582
1288.0,12880.0,86132.0,76170.0,86006.9,76176.8,123.2,17.3,12.88,125.10000000000582,-6.80000000000291
1290.0,12900.0,86149.0,76178.0,86032.4,76174.8,127.4,12.7,12.9,116.60000000000582,3.1999999999970896
1292.0,12920.0,86201.0,76176.0,86062.1,76174.6,127.5,6.4,12.92,138.89999999999418,1.3999999999941792
1294.0,12940.0,86204.0,76184.0,86089.2,76176.7,128.4,3.1,12.94,114.80000000000291,7.30000000000291
1296.0,12960.0,86140.0,76152.0,86103.1,76174.2,122.9,1.9,12.96,36.89999999999418,-22.19999999999709
1298.0,12980.0,86011.0,76099.0,86091.7,76164.1,95.9,-4.3,12.98,-80.69999999999709,-65.10000000000582
1300.0,13000.0,85800.0,76019.0,86047.3,76139.9,35.8,-23.1,13.0,-247.3000000000029,-120.89999999999418
1302.0,13020.0,85615.0,75938.0,85972.5,76105.4,-61.3,-56.5,13.02,-357.5,-167.39999999999418
1304.0,13040.0,85473.0,75902.0,85882.0,76066.6,-178.1,-97.9,13.04,-409.0,-164.60000000000582
1306.0,13060.0,85414.0,75875.0,85795.5,76031.3,-283.3,-132.8,13.06,-381.5,-156.3000000000029
1308.0,13080.0,85362.0,75855.0,85713.6,75998.6,-352.7,-153.0,13.08,-351.6000000000058,-143.60000000000582
1310.0,13100.0,85352.0,75858.0,85645.3,75970.8,-380.0,-158.4,13.1,-293.3000000000029,-112.80000000000291
1312.0,13120.0,85380.0,75877.0,85593.1,75952.5,-367.0,-148.3,13.12,-213.10000000000582,-75.5
1314.0,13140.0,85408.0,75886.0,85557.0,75938.4,-321.6,-126.1,13.14,-149.0,-52.39999999999418
1316.0,13160.0,85465.0,75915.0,85536.2,75931.1,-257.0,-98.7,13.16,-71.19999999999709,-16.10000000000582
1318.0,13180.0,85514.0,75929.0,85529.5,75928.9,-183.2,-68.5,13.18,-15.5,0.10000000000582077
1320.0,13200.0,85604.0,75951.0,85540.5,75931.5,-106.9,-39.1,13.2,63.5,19.5
1322.0,13220.0,85644.0,75960.0,85557.9,75937.1,-33.3,-12.5,13.22,86.10000000000582,22.89999999999418
1324.0,13240.0,85682.0,75966.0,85579.5,75944.2,27.2,9.2,13.24,102.5,21.80000000000291
1326.0,13260.0,85718.0,75957.0,85603.3,75948.1,70.7,22.6,13.26,114.69999999999709,8.89999999999418
1328.0,13280.0,85712.0,75985.0,85622.6,75954.4,96.2,27.3,13.28,89.39999999999418,30.60000000000582
1330.0,13300.0,85710.0,75977.0,85639.8,75956.5,104.3,27.1,13.3,70.19999999999709,20.5
1332.0,13320.0,85715.0,75971.0,85655.9,75958.3,100.8,22.8,13.32,59.10000000000582,12.69999999999709
1334.0,13340.0,85737.0,75979.0,85670.4,75960.3,90.8,17.2,13.34,66.60000000000582,18.69999999999709
1336.0,13360.0,85765.0,75968.0,85686.9,75962.4,80.7,13.5,13.36,78.10000000000582,5.600000000005821
1338.0,13380.0,85807.0,75993.0,85706.3,75970.1,75.5,13.8,13.38,100.69999999999709,22.89999999999418
1340.0,13400.0,85828.0,75996.0,85717.1,75973.3,77.5,17.7,13.4,110.89999999999418,22.69999999999709
1342.0,13420.0,85856.0,76019.0,85718.3,75973.8,86.3,23.1,13.42,137.6999999999971,45.19999999999709
1344.0,13440.0,85868.0,76050.0,85719.8,75974.4,102.3,31.4,13.44,148.1999999999971,75.60000000000582
1346.0,13460.0,85908.0,76043.0,85721.7,75975.0,124.3,42.7,13.46,186.3000000000029,68.0
1348.0,13480.0,85915.0,76056.0,85723.6,75975.7,149.6,53.0,13.48,191.39999999999418,80.30000000000291
1350.0,13500.0,85965.0,76048.0,85726.0,75976.5,174.4,63.1,13.5,239.0,71.5
1352.0,13520.0,86004.0,76054.0,85728.5,75977.4,200.5,72.0,13.52,275.5,76.60000000000582
1354.0,13540.0,86026.0,76067.0,85731.5,75978.3,228.8,79.5,13.54,294.5,88.69999999999709
1356.0,13560.0,86055.0,76093.0,85734.6,75979.4,257.2,87.3,13.56,320.3999999999942,113.60000000000582
1358.0,13580.0,86059.0,76108.0,85737.8,75980.7,284.3,97.3,13.58,321.1999999999971,127.30000000000291
1360.0,13600.0,86074.0,76110.0,85741.3,75981.9,307.7,107.5,13.6,332.6999999999971,128.10000000000582
1362.0,13620.0,86037.0,76101.0,85744.4,75983.1,323.4,115.7,13.62,292.6000000000058,117.89999999999418
1364.0,13640.0,85943.0,76057.0,85746.7,75983.9,321.0,117.5,13.64,196.3000000000029,73.10000000000582
1366.0,13660.0,85778.0,75973.0,85747.4,75984.1,283.9,104.3,13.66,30.60000000000582,-11.10000000000582
1368.0,13680.0,85543.0,75893.0,85746.0,75983.3,197.1,68.0,13.68,-203.0,-90.30000000000291
1370.0,13700.0,85409.0,75823.0,85742.9,75981.9,60.1,12.0,13.7,-333.8999999999942,-158.89999999999418
1372.0,13720.0,85360.0,75829.0,85739.1,75980.3,-96.3,-52.3,13.72,-379.1000000000058,-151.3000000000029
1374.0,13740.0,85391.0,75841.0,85735.6,75978.8,-230.5,-105.9,13.74,-344.6000000000058,-137.8000000000029
1376.0,13760.0,85456.0,75880.0,85732.6,75977.7,-313.4,-135.5,13.76,-276.6000000000058,-97.69999999999709
1378.0,13780.0,85540.0,75908.0,85730.5,75976.9,-336.4,-138.9,13.78,-190.5,-68.89999999999418
1380.0,13800.0,85611.0,75927.0,85729.1,75976.4,-307.9,-122.8,13.8,-118.10000000000582,-49.39999999999418
1382.0,13820.0,85692.0,75980.0,85728.5,75976.3,-246.5,-95.1,13.82,-36.5,3.6999999999970896
1384.0,13840.0,85768.0,76005.0,85728.7,75976.5,-166.5,-58.5,13.84,39.30000000000291,28.5
1386.0,13860.0,85847.0,76036.0,85729.7,75977.1,-79.1,-19.9,13.86,117.30000000000291,58.89999999999418
1388.0,13880.0,85902.0,76057.0,85731.3,75977.8,7.7,15.8,13.88,170.6999999999971,79.19999999999709
1390.0,13900.0,85953.0,76096.0,85733.3,75978.9,85.6,48.1,13.9,219.6999999999971,117.10000000000582
1392.0,13920.0,85953.0,76064.0,85735.5,75979.7,148.7,74.2,13.92,217.5,84.30000000000291
1394.0,13940.0,85933.0,76048.0,85737.5,75980.4,191.1,86.9,13.94,195.5,67.60000000000582
1396.0,13960.0,85925.0,76056.0,85739.4,75981.1,210.7,88.1,13.96,185.60000000000582,74.89999999999418
1398.0,13980.0,85954.0,76059.0,85741.6,75981.9,215.4,84.8,13.98,212.39999999999418,77.10000000000582
1400.0,14000.0,85969.0,76074.0,85743.8,75982.8,216.4,82.4,14.0,225.1999999999971,91.19999999999709
1402.0,14020.0,85989.0,76086.0,85746.2,75983.9,219.3,84.4,14.02,242.8000000000029,102.10000000000582
1404.0,14040.0,86043.0,76125.0,85748.9,75985.2,227.9,92.1,14.04,294.1000000000058,139.8000000000029
1406.0,14060.0,86061.0,76132.0,85752.0,75986.6,246.0,106.2,14.06,309.0,145.39999999999418
1408.0,14080.0,86107.0,76163.0,85755.4,75988.2,270.8,122.6,14.08,351.6000000000058,174.8000000000029
1410.0,14100.0,86134.0,76171.0,85759.0,75990.0,300.2,140.4,14.1,375.0,181.0
1412.0,14120.0,86188.0,76174.0,85763.2,75991.8,333.5,156.6,14.12,424.8000000000029,182.1999999999971
1414.0,14140.0,86223.0,76182.0,85767.8,75993.6,371.3,170.0,14.14,455.1999999999971,188.39999999999418
1416.0,14160.0,86252.0,76200.0,85772.5,75995.7,409.1,182.2,14.16,479.5,204.3000000000029
1418.0,14180.0,86295.0,76195.0,85777.6,75997.7,444.1,192.4,14.18,517.3999999999942,197.3000000000029
1420.0,14200.0,86322.0,76213.0,85783.0,75999.8,476.5,199.0,14.2,539.0,213.1999999999971
1422.0,14220.0,86339.0,76236.0,85788.5,76002.1,505.4,204.9,14.22,550.5,233.89999999999418
1424.0,14240.0,86371.0,76234.0,85794.3,76004.3,530.9,212.5,14.24,576.6999999999971,229.6999999999971
1426.0,14260.0,86394.0,76249.0,85800.2,76006.7,553.7,219.8,14.26,593.8000000000029,242.3000000000029
1428.0,14280.0,86423.0,76240.0,85806.4,76009.1,574.9,227.1,14.28,616.6000000000058,230.89999999999418
1430.0,14300.0,86433.0,76242.0,85812.6,76011.5,593.5,234.0,14.3,620.3999999999942,230.5
1432.0,14320.0,86339.0,76185.0,85818.0,76013.5,601.4,235.9,14.32,521.0,171.5
1434.0,14340.0,86180.0,76129.0,85822.0,76014.9,578.4,221.5,14.34,358.0,114.10000000000582
1436.0,14360.0,85972.0,76064.0,85824.1,76015.4,507.8,185.9,14.36,147.89999999999418,48.60000000000582
1438.0,14380.0,85800.0,75970.0,85824.4,76015.1,387.3,131.2,14.38,-24.39999999999418,-45.10000000000582
1440.0,14400.0,85672.0,75933.0,85823.2,76014.3,232.9,63.1,14.4,-151.1999999999971,-81.30000000000291
1442.0,14420.0,85658.0,75923.0,85821.6,76013.4,75.3,-2.2,14.42,-163.60000000000582,-90.39999999999418
1444.0,14440.0,85702.0,75929.0,85820.1,76012.6,-49.6,-50.4,14.44,-118.10000000000582,-83.60000000000582
1446.0,14460.0,85727.0,75946.0,85819.1,76011.9,-121.9,-77.4,14.46,-92.10000000000582,-65.89999999999418
1448.0,14480.0,85823.0,76001.0,85818.7,76011.7,-142.5,-82.8,14.48,4.30000000000291,-10.69999999999709
1450.0,14500.0,85905.0,76051.0,85819.4,76011.9,-113.5,-67.1,14.5,85.60000000000582,39.10000000000582
1452.0,14520.0,86011.0,76086.0,85821.2,76012.5,-45.8,-33.8,14.52,189.8000000000029,73.5
1454.0,14540.0,86074.0,76138.0,85823.6,76013.7,43.6,9.1,14.54,250.39999999999418,124.30000000000291
1456.0,14560.0,86146.0,76148.0,85826.7,76015.0,136.3,54.8,14.56,319.3000000000029,133.0
1458.0,14580.0,86181.0,76159.0,85830.1,76016.4,220.7,94.5,14.58,350.8999999999942,142.60000000000582
1460.0,14600.0,86174.0,76161.0,85833.5,76017.9,286.4,123.1,14.6,340.5,143.10000000000582
1462.0,14620.0,86164.0,76137.0,85836.8,76019.1,326.4,137.8,14.62,327.1999999999971,117.89999999999418
1464.0,14640.0,86143.0,76116.0,85839.9,76020.0,342.1,137.6,14.64,303.1000000000058,96.0
1466.0,14660.0,86124.0,76092.0,85842.9,76020.8,338.7,125.7,14.66,281.1000000000058,71.19999999999709
1468.0,14680.0,86128.0,76082.0,85845.7,76021.5,324.3,107.9,14.68,282.3000000000029,60.5
1470.0,14700.0,86138.0,76080.0,85848.7,76022.1,308.8,88.9,14.7,289.3000000000029,57.89999999999418
1472.0,14720.0,86169.0,76092.0,85851.7,76022.8,298.4,73.8,14.72,317.3000000000029,69.19999999999709
1474.0,14740.0,86189.0,76114.0,85852.5,76022.7,261.8,54.9,14.74,336.5,91.30000000000291
1476.0,14760.0,86236.0,76122.0,85856.2,76023.6,238.6,45.1,14.76,379.8000000000029,98.39999999999418
1478.0,14780.0,86269.0,76124.0,85860.2,76024.6,264.7,53.4,14.78,408.8000000000029,99.39999999999418
1480.0,14800.0,86294.0,76130.0,85864.5,76025.7,312.9,69.2,14.8,429.5,104.30000000000291
1482.0,14820.0,86338.0,76143.0,85869.1,76026.9,364.7,86.3,14.82,468.8999999999942,116.10000000000582
1484.0,14840.0,86350.0,76139.0,85874.0,76028.0,412.5,100.1,14.84,476.0,111.0
1486.0,14860.0,86386.0,76141.0,85879.0,76029.1,451.3,108.6,14.86,507.0,111.89999999999418
1488.0,14880.0,86412.0,76176.0,85884.2,76030.4,481.3,114.5,14.88,527.8000000000029,145.60000000000582
1490.0,14900.0,86468.0,76177.0,85889.9,76031.9,507.0,122.9,14.9,578.1000000000058,145.10000000000582
1492.0,14920.0,86468.0,76186.0,85895.6,76033.4,531.6,132.6,14.92,572.3999999999942,152.60000000000582
1494.0,14940.0,86489.0,76183.0,85901.4,76034.9,551.5,140.8,14.94,587.6000000000058,148.10000000000582
1496.0,14960.0,86522.0,76197.0,85907.4,76036.5,568.4,147.2,14.96,614.6000000000058,160.5
1498.0,14980.0,86521.0,76196.0,85913.6,76038.1,585.5,153.1,14.98,607.3999999999942,157.89999999999418
1500.0,15000.0,86517.0,76202.0,85919.6,76039.7,598.6,156.6,15.0,597.3999999999942,162.3000000000029
1502.0,15020.0,86454.0,76161.0,85925.2,76040.9,601.1,155.8,15.02,528.8000000000029,120.10000000000582
1504.0,15040.0,86322.0,76105.0,85929.5,76041.7,579.5,143.4,15.04,392.5,63.30000000000291
1506.0,15060.0,86129.0,76015.0,85932.0,76041.7,517.5,115.0,15.06,197.0,-26.69999999999709
1508.0,15080.0,85944.0,75935.0,85932.4,76041.0,405.6,69.0,15.08,11.60000000000582,-106.0
1510.0,15100.0,85811.0,75885.0,85931.4,76039.6,255.4,7.7,15.1,-120.39999999999418,-154.60000000000582
1512.0,15120.0,85756.0,75890.0,85929.8,76038.1,98.2,-56.2,15.12,-173.8000000000029,-148.10000000000582
1514.0,15140.0,86338.0,76143.0,85931.0,76037.9,-21.7,-101.1,15.14,407.0,105.10000000000582
1516.0,15160.0,85832.0,75921.0,85930.0,76036.6,-47.0,-105.9,15.16,-98.0,-115.60000000000582
1518.0,15180.0,85879.0,75959.0,85929.4,76035.6,-61.9,-107.9,15.18,-50.39999999999418,-76.60000000000582
1520.0,15200.0,85954.0,75975.0,85929.5,76035.0,-63.2,-102.6,15.2,24.5,-60.0
1522.0,15220.0,86042.0,76004.0,85930.2,76034.8,-41.2,-85.6,15.22,111.80000000000291,-30.80000000000291
1524.0,15240.0,86077.0,76015.0,85931.5,76034.7,3.1,-61.4,15.24,145.5,-19.69999999999709
1526.0,15260.0,86129.0,76051.0,85933.3,76034.9,57.7,-36.5,15.26,195.6999999999971,16.10000000000582
1528.0,15280.0,86150.0,76073.0,85935.5,76035.1,114.1,-12.6,15.28,214.5,37.89999999999418
1530.0,15300.0,86174.0,76053.0,85937.9,76035.3,165.5,7.0,15.3,236.10000000000582,17.69999999999709
1532.0,15320.0,86136.0,76046.0,85940.1,76035.4,204.4,17.2,15.32,195.89999999999418,10.60000000000582
1534.0,15340.0,86137.0,76017.0,85942.1,76035.4,221.5,18.8,15.34,194.89999999999418,-18.39999999999418
1536.0,15360.0,86136.0,76007.0,85944.0,76035.2,221.7,12.4,15.36,192.0,-28.19999999999709
1538.0,15380.0,86122.0,76002.0,85945.8,76034.9,213.5,0.7,15.38,176.1999999999971,-32.89999999999418
1540.0,15400.0,86157.0,76010.0,85947.8,76034.7,202.9,-11.1,15.4,209.1999999999971,-24.69999999999709
1542.0,15420.0,86178.0,76025.0,85950.1,76034.6,199.4,-17.8,15.42,227.89999999999418,-9.60000000000582
1544.0,15440.0,86229.0,76040.0,85952.8,76034.6,207.8,-18.2,15.44,276.1999999999971,5.399999999994179
1546.0,15460.0,86272.0,76063.0,85955.8,76034.8,229.1,-11.9,15.46,316.1999999999971,28.19999999999709
1548.0,15480.0,86310.0,76072.0,85959.3,76035.1,260.7,-0.3,15.48,350.6999999999971,36.89999999999418
1550.0,15500.0,86360.0,76062.0,85963.1,76035.4,297.6,12.4,15.5,396.8999999999942,26.60000000000582
1552.0,15520.0,86386.0,76088.0,85967.3,76035.8,337.2,22.9,15.52,418.6999999999971,52.19999999999709
1554.0,15540.0,86413.0,76086.0,85971.7,76036.3,375.5,33.6,15.54,441.3000000000029,49.69999999999709
1556.0,15560.0,86445.0,76086.0,85976.4,76036.8,409.9,42.0,15.56,468.6000000000058,49.19999999999709
1558.0,15580.0,86471.0,76092.0,85981.2,76037.3,439.9,46.7,15.58,489.8000000000029,54.69999999999709
1560.0,15600.0,86512.0,76116.0,85986.4,76038.1,465.4,51.6,15.6,525.6000000000058,77.89999999999418
1562.0,15620.0,86520.0,76104.0,85991.6,76038.7,488.9,58.0,15.62,528.3999999999942,65.30000000000291
1564.0,15640.0,86548.0,76097.0,85997.1,76039.3,509.1,61.9,15.64,550.8999999999942,57.69999999999709
1566.0,15660.0,86557.0,76111.0,86002.7,76039.9,527.6,62.6,15.66,554.3000000000029,71.10000000000582
1568.0,15680.0,86572.0,76098.0,86008.4,76040.5,544.5,63.5,15.68,563.6000000000058,57.5
1570.0,15700.0,86554.0,76071.0,86014.0,76041.0,556.9,62.8,15.7,540.0,30.0
1572.0,15720.0,86448.0,76029.0,86018.6,76041.0,553.8,54.3,15.72,429.3999999999942,-12.0
1574.0,15740.0,86289.0,75967.0,86021.6,76040.3,514.8,31.1,15.74,267.3999999999942,-73.30000000000291
1576.0,15760.0,86122.0,75869.0,86023.0,76038.8,430.8,-10.3,15.76,99.0,-169.8000000000029
1578.0,15780.0,85984.0,75838.0,86022.9,76036.8,309.5,-67.5,15.78,-38.89999999999418,-198.8000000000029
1580.0,15800.0,85930.0,75794.0,86022.1,76034.4,171.6,-127.9,15.8,-92.10000000000582,-240.39999999999418
1582.0,15820.0,85936.0,75806.0,86021.2,76032.1,48.6,-181.0,15.82,-85.19999999999709,-226.10000000000582
1584.0,15840.0,85972.0,75804.0,86020.6,76029.8,-34.7,-215.8,15.84,-48.60000000000582,-225.8000000000029
1586.0,15860.0,86039.0,75842.0,86020.6,76027.9,-70.3,-228.7,15.86,18.39999999999418,-185.89999999999418
1588.0,15880.0,86074.0,75855.0,86021.0,76026.2,-63.9,-222.4,15.88,53.0,-171.1999999999971
1590.0,15900.0,86139.0,75896.0,86022.0,76024.8,-29.9,-204.6,15.9,117.0,-128.8000000000029
1592.0,15920.0,86192.0,75937.0,86023.5,76023.7,21.6,-178.6,15.92,168.5,-86.69999999999709
1594.0,15940.0,86220.0,75929.0,86025.5,76022.7,81.0,-148.3,15.94,194.5,-93.69999999999709
1596.0,15960.0,86247.0,75928.0,86027.8,76021.7,137.2,-122.7,15.96,219.1999999999971,-93.69999999999709
1598.0,15980.0,86263.0,75916.0,86030.1,76020.8,182.7,-105.1,15.98,232.89999999999418,-104.80000000000291
1600.0,16000.0,86260.0,75910.0,86032.3,76019.8,212.9,-95.2,16.0,227.6999999999971,-109.80000000000291
1602.0,16020.0,86218.0,75889.0,86034.1,76018.6,224.1,-94.0,16.02,183.89999999999418,-129.60000000000582
1604.0,16040.0,86191.0,75893.0,86035.7,76017.3,215.7,-101.1,16.04,155.3000000000029,-124.30000000000291
1606.0,16060.0,86171.0,75892.0,86037.1,76016.0,195.8,-111.2,16.06,133.89999999999418,-124.0
1608.0,16080.0,86173.0,75882.0,86038.6,76014.7,174.5,-120.5,16.08,134.39999999999418,-132.6999999999971
1610.0,16100.0,86180.0,75893.0,86040.0,76013.4,158.2,-127.1,16.1,140.0,-120.39999999999418
1612.0,16120.0,86218.0,75889.0,86041.8,76012.2,150.5,-128.9,16.12,176.1999999999971,-123.19999999999709
1614.0,16140.0,86258.0,75909.0,86043.8,76011.1,155.2,-126.3,16.14,214.1999999999971,-102.10000000000582
1616.0,16160.0,86294.0,75919.0,86046.1,76010.2,170.9,-118.4,16.16,247.89999999999418,-91.19999999999709
1618.0,16180.0,86309.0,75932.0,86048.6,76009.4,193.9,-107.7,16.18,260.3999999999942,-77.39999999999418
1620.0,16200.0,86342.0,75935.0,86051.5,76008.7,220.8,-96.0,16.2,290.5,-73.69999999999709
1622.0,16220.0,86360.0,75941.0,86054.5,76008.0,249.8,-85.2,16.22,305.5,-67.0
1624.0,16240.0,86385.0,75953.0,86057.8,76007.5,277.1,-74.5,16.24,327.1999999999971,-54.5
1626.0,16260.0,86411.0,75948.0,86061.2,76006.9,301.8,-64.6,16.26,349.8000000000029,-58.89999999999418
1628.0,16280.0,86425.0,75959.0,86064.8,76006.4,324.0,-57.5,16.28,360.1999999999971,-47.39999999999418
1630.0,16300.0,86431.0,75976.0,86068.4,76006.0,341.9,-51.6,16.3,362.6000000000058,-30.0
1632.0,16320.0,86447.0,75968.0,86072.2,76005.6,355.1,-45.8,16.32,374.8000000000029,-37.60000000000582
1634.0,16340.0,86448.0,75985.0,86076.0,76005.4,366.2,-40.7,16.34,372.0,-20.39999999999418
1636.0,16360.0,86475.0,75990.0,86079.9,76005.2,373.8,-33.7,16.36,395.1000000000058,-15.19999999999709
1638.0,16380.0,86495.0,76014.0,86084.0,76005.3,382.2,-24.3,16.38,411.0,8.69999999999709
1640.0,16400.0,86423.0,75973.0,86087.6,76005.1,389.5,-14.3,16.4,335.3999999999942,-32.10000000000582
1642.0,16420.0,86283.0,75903.0,86090.0,76004.3,375.8,-15.5,16.42,193.0,-101.30000000000291
1644.0,16440.0,86068.0,75820.0,86090.4,76002.7,318.5,-39.0,16.44,-22.39999999999418,-182.6999999999971
1646.0,16460.0,85883.0,75719.0,86088.8,76000.1,206.3,-87.8,16.46,-205.8000000000029,-281.1000000000058
1648.0,16480.0,85732.0,75668.0,86085.5,75996.9,52.5,-157.1,16.48,-353.5,-328.8999999999942
1650.0,16500.0,85674.0,75633.0,86081.5,75993.3,-113.4,-230.7,16.5,-407.5,-360.3000000000029
1652.0,16520.0,85690.0,75633.0,86077.5,75989.7,-254.8,-293.3,16.52,-387.5,-356.6999999999971
1654.0,16540.0,85713.0,75645.0,86073.9,75986.2,-346.4,-334.8,16.54,-360.8999999999942,-341.1999999999971
1656.0,16560.0,85732.0,75682.0,86070.3,75983.0,-388.3,-353.6,16.56,-338.3000000000029,-301.0
1658.0,16580.0,85773.0,75679.0,86067.3,75979.8,-391.5,-352.6,16.58,-294.3000000000029,-300.8000000000029
1660.0,16600.0,85810.0,75700.0,86064.6,75976.9,-367.2,-339.8,16.6,-254.60000000000582,-276.8999999999942
1662.0,16620.0,85832.0,75708.0,86062.2,75974.2,-329.1,-319.3,16.62,-230.1999999999971,-266.1999999999971
1664.0,16640.0,85874.0,75723.0,86060.2,75971.9,-287.8,-293.9,16.64,-186.1999999999971,-248.89999999999418
1666.0,16660.0,85866.0,75721.0,86058.3,75969.4,-247.5,-269.4,16.66,-192.3000000000029,-248.39999999999418
1668.0,16680.0,85851.0,75736.0,86056.3,75967.1,-216.8,-251.4,16.68,-205.3000000000029,-231.10000000000582
1670.0,16700.0,85813.0,75745.0,86054.0,75964.8,-201.8,-239.7,16.7,-241.0,-219.8000000000029
1672.0,16720.0,85779.0,75710.0,86051.4,75962.2,-204.0,-234.4,16.72,-272.3999999999942,-252.1999999999971
1674.0,16740.0,85726.0,75691.0,86048.3,75959.5,-222.5,-239.0,16.74,-322.3000000000029,-268.5
1676.0,16760.0,85689.0,75678.0,86044.8,75956.7,-256.0,-249.4,16.76,-355.8000000000029,-278.6999999999971
1678.0,16780.0,85700.0,75651.0,86041.3,75953.8,-294.6,-260.9,16.78,-341.3000000000029,-302.8000000000029
1680.0,16800.0,85674.0,75657.0,86037.6,75950.9,-325.9,-272.4,16.8,-363.6000000000058,-293.8999999999942
1682.0,16820.0,85697.0,75681.0,86034.1,75948.2,-347.7,-279.7,16.82,-337.1000000000058,-267.1999999999971
1684.0,16840.0,85723.0,75700.0,86030.9,75945.7,-353.8,-279.3,16.84,-307.8999999999942,-245.6999999999971
1686.0,16860.0,85767.0,75716.0,86028.3,75943.3,-341.0,-271.5,16.86,-261.3000000000029,-227.3000000000029
1688.0,16880.0,85793.0,75731.0,86025.9,75941.1,-313.8,-258.0,16.88,-232.89999999999418,-210.10000000000582
1690.0,16900.0,85838.0,75746.0,86024.0,75939.1,-279.7,-240.1,16.9,-186.0,-193.10000000000582
1692.0,16920.0,85875.0,75744.0,86022.3,75937.2,-242.7,-221.0,16.92,-147.3000000000029,-193.1999999999971
1694.0,16940.0,85887.0,75751.0,86020.9,75935.4,-205.3,-204.7,16.94,-133.89999999999418,-184.39999999999418
1696.0,16960.0,85912.0,75769.0,86019.8,75933.7,-170.4,-190.6,16.96,-107.80000000000291,-164.6999999999971
1698.0,16980.0,85939.0,75775.0,86019.0,75932.2,-138.2,-177.0,16.98,-80.0,-157.1999999999971
1700.0,17000.0,85962.0,75784.0,86018.4,75930.7,-108.5,-165.8,17.0,-56.39999999999418,-146.6999999999971
1702.0,17020.0,85982.0,75804.0,86018.0,75929.3,-82.2,-156.1,17.02,-36.0,-125.30000000000291
1704.0,17040.0,85996.0,75804.0,86017.7,75928.1,-59.2,-145.1,17.04,-21.69999999999709,-124.10000000000582
1706.0,17060.0,86006.0,75800.0,86017.6,75926.9,-40.5,-134.9,17.06,-11.60000000000582,-126.89999999999418
1708.0,17080.0,85982.0,75808.0,86017.3,75925.7,-27.6,-127.6,17.08,-35.30000000000291,-117.69999999999709
1710.0,17100.0,85874.0,75753.0,86016.2,75924.1,-28.5,-124.3,17.1,-142.1999999999971,-171.10000000000582
1712.0,17120.0,85645.0,75671.0,86013.1,75921.9,-64.3,-136.0,17.12,-368.1000000000058,-250.89999999999418
1714.0,17140.0,85375.0,75568.0,86007.4,75918.6,-161.1,-172.7,17.14,-632.3999999999942,-350.6000000000058
1716.0,17160.0,85136.0,75505.0,85999.3,75914.6,-324.0,-232.9,17.16,-863.3000000000029,-409.6000000000058
1718.0,17180.0,85003.0,75430.0,85989.6,75909.9,-528.7,-305.2,17.18,-986.6000000000058,-479.8999999999942
1720.0,17200.0,84968.0,75414.0,85979.4,75905.0,-729.4,-378.1,17.2,-1011.3999999999942,-491.0
1722.0,17220.0,84979.0,75439.0,85969.4,75900.2,-883.7,-435.6,17.22,-990.3999999999942,-461.1999999999971
1724.0,17240.0,85034.0,75438.0,85960.0,75895.7,-971.1,-466.9,17.24,-926.0,-457.6999999999971
1726.0,17260.0,85090.0,75460.0,85951.1,75891.3,-994.6,-475.7,17.26,-861.1000000000058,-431.3000000000029
1728.0,17280.0,85158.0,75486.0,85943.0,75887.1,-969.5,-468.0,17.28,-785.0,-401.1000000000058
1730.0,17300.0,85257.0,75550.0,85935.9,75883.6,-909.5,-445.8,17.3,-678.8999999999942,-333.6000000000058
1732.0,17320.0,85324.0,75565.0,85929.6,75880.3,-825.7,-410.8,17.32,-605.6000000000058,-315.3000000000029
1734.0,17340.0,85393.0,75595.0,85924.1,75877.4,-732.9,-371.3,17.34,-531.1000000000058,-282.3999999999942
1736.0,17360.0,85434.0,75618.0,85919.1,75874.8,-643.8,-331.6,17.36,-485.1000000000058,-256.8000000000029
1738.0,17380.0,85448.0,75618.0,85914.3,75872.3,-567.9,-295.6,17.38,-466.3000000000029,-254.3000000000029
1740.0,17400.0,85424.0,75596.0,85912.3,75870.6,-472.9,-256.5,17.4,-488.3000000000029,-274.6000000000058
1742.0,17420.0,85403.0,75579.0,85907.3,75867.8,-405.6,-232.7,17.42,-504.3000000000029,-288.8000000000029
1744.0,17440.0,85414.0,75572.0,85902.3,75864.9,-401.4,-235.7,17.44,-488.3000000000029,-292.8999999999942
1746.0,17460.0,85402.0,75571.0,85897.3,75861.9,-423.4,-250.9,17.46,-495.3000000000029,-290.8999999999942
1748.0,17480.0,85417.0,75582.0,85892.5,75859.0,-450.1,-267.8,17.48,-475.5,-277.0
1750.0,17500.0,85431.0,75569.0,85887.9,75856.1,-467.8,-279.9,17.5,-456.8999999999942,-287.1000000000058
1752.0,17520.0,85466.0,75583.0,85883.5,75853.4,-471.0,-286.2,17.52,-417.5,-270.3999999999942
1754.0,17540.0,85507.0,75589.0,85879.7,75850.7,-457.6,-285.1,17.54,-372.6999999999971,-261.6999999999971
1756.0,17560.0,85565.0,75607.0,85876.4,75848.4,-429.5,-276.1,17.56,-311.3999999999942,-241.39999999999418
1758.0,17580.0,85583.0,75614.0,85873.3,75846.0,-391.2,-262.4,17.58,-290.3000000000029,-232.0
1760.0,17600.0,85626.0,75620.0,85870.7,75843.8,-349.7,-248.4,17.6,-244.6999999999971,-223.8000000000029
1762.0,17620.0,85651.0,75663.0,85868.4,75841.8,-306.1,-234.9,17.62,-217.39999999999418,-178.8000000000029
1764.0,17640.0,85686.0,75649.0,85866.6,75839.8,-262.7,-219.0,17.64,-180.60000000000582,-190.8000000000029
1766.0,17660.0,85703.0,75645.0,85865.0,75837.8,-222.9,-206.5,17.66,-162.0,-192.8000000000029
1768.0,17680.0,85738.0,75634.0,85863.7,75835.9,-188.2,-198.4,17.68,-125.69999999999709,-201.89999999999418
1770.0,17700.0,85797.0,75657.0,85862.8,75834.2,-156.6,-191.4,17.7,-65.80000000000291,-177.1999999999971
1772.0,17720.0,85797.0,75656.0,85862.1,75832.4,-124.6,-183.9,17.72,-65.10000000000582,-176.39999999999418
1774.0,17740.0,85819.0,75670.0,85861.5,75830.8,-97.1,-177.4,17.74,-42.5,-160.8000000000029
1776.0,17760.0,85804.0,75673.0,85860.9,75829.2,-74.6,-171.1,17.76,-56.89999999999418,-156.1999999999971
1778.0,17780.0,85747.0,75638.0,85860.2,75827.4,-59.0,-166.9,17.78,-113.19999999999709,-189.39999999999418
1780.0,17800.0,85601.0,75595.0,85858.1,75825.2,-67.4,-171.8,17.8,-257.1000000000058,-230.1999999999971
1782.0,17820.0,85406.0,75507.0,85854.2,75822.2,-121.8,-191.7,17.82,-448.1999999999971,-315.1999999999971
1784.0,17840.0,85188.0,75425.0,85848.0,75818.5,-232.6,-232.4,17.84,-660.0,-393.5
1786.0,17860.0,85034.0,75368.0,85840.1,75814.1,-391.1,-290.4,17.86,-806.1000000000058,-446.1000000000058
1788.0,17880.0,84984.0,75361.0,85831.6,75809.6,-562.5,-352.2,17.88,-847.6000000000058,-448.6000000000058
1790.0,17900.0,84975.0,75368.0,85823.1,75805.2,-705.7,-401.6,17.9,-848.1000000000058,-437.1999999999971
1792.0,17920.0,84994.0,75362.0,85814.8,75800.8,-798.8,-431.6,17.92,-820.8000000000029,-438.8000000000029
1794.0,17940.0,85036.0,75380.0,85807.0,75796.6,-839.5,-443.5,17.94,-771.0,-416.6000000000058
1796.0,17960.0,85083.0,75400.0,85799.7,75792.7,-836.5,-439.5,17.96,-716.6999999999971,-392.6999999999971
1798.0,17980.0,85129.0,75428.0,85792.9,75789.0,-803.6,-424.5,17.98,-663.8999999999942,-361.0
1800.0,18000.0,85198.0,75450.0,85786.7,75785.5,-753.5,-402.0,18.0,-588.6999999999971,-335.5
1802.0,18020.0,85261.0,75475.0,85781.3,75782.3,-691.0,-376.4,18.02,-520.3000000000029,-307.3000000000029
1804.0,18040.0,85309.0,75493.0,85776.4,75779.3,-621.6,-349.2,18.04,-467.3999999999942,-286.3000000000029
1806.0,18060.0,85319.0,75488.0,85771.8,75776.4,-554.9,-323.3,18.06,-452.8000000000029,-288.3999999999942
1808.0,18080.0,85331.0,75494.0,85767.4,75773.6,-501.2,-302.2,18.08,-436.3999999999942,-279.6000000000058
1810.0,18100.0,85312.0,75477.0,85762.9,75770.7,-463.7,-288.2,18.1,-450.8999999999942,-293.6999999999971
1812.0,18120.0,85299.0,75476.0,85758.3,75767.8,-444.0,-282.6,18.12,-459.3000000000029,-291.8000000000029
1814.0,18140.0,85299.0,75481.0,85753.8,75764.9,-438.8,-282.2,18.14,-454.8000000000029,-283.8999999999942
1816.0,18160.0,85328.0,75479.0,85749.4,75762.1,-439.1,-283.1,18.16,-421.3999999999942,-283.1000000000058
1818.0,18180.0,85345.0,75497.0,85745.3,75759.4,-435.2,-282.2,18.18,-400.3000000000029,-262.3999999999942
1820.0,18200.0,85365.0,75513.0,85741.5,75756.8,-424.4,-277.2,18.2,-376.5,-243.8000000000029
1822.0,18220.0,85424.0,75527.0,85738.2,75754.5,-405.3,-267.3,18.22,-314.1999999999971,-227.5
1824.0,18240.0,85455.0,75536.0,85735.3,75752.3,-374.6,-253.6,18.24,-280.3000000000029,-216.3000000000029
1826.0,18260.0,85486.0,75547.0,85732.7,75750.2,-337.2,-238.0,18.26,-246.6999999999971,-203.1999999999971
1828.0,18280.0,85524.0,75567.0,85730.5,75748.3,-298.1,-221.8,18.28,-206.5,-181.3000000000029
1830.0,18300.0,85573.0,75575.0,85728.8,75746.6,-257.6,-205.0,18.3,-155.8000000000029,-171.60000000000582
1832.0,18320.0,85578.0,75579.0,85727.2,75744.9,-217.9,-189.7,18.32,-149.1999999999971,-165.89999999999418
1834.0,18340.0,85595.0,75582.0,85725.9,75743.3,-183.4,-177.3,18.34,-130.89999999999418,-161.3000000000029
1836.0,18360.0,85624.0,75594.0,85724.8,75741.8,-154.1,-167.0,18.36,-100.80000000000291,-147.8000000000029
1838.0,18380.0,85631.0,75600.0,85724.0,75740.3,-127.8,-157.9,18.38,-93.0,-140.3000000000029
1840.0,18400.0,85645.0,75617.0,85723.2,75739.0,-106.1,-150.2,18.4,-78.19999999999709,-122.0
1842.0,18420.0,85677.0,75611.0,85722.6,75737.7,-88.5,-142.2,18.42,-45.60000000000582,-126.69999999999709
1844.0,18440.0,85707.0,75625.0,85722.4,75736.5,-70.3,-134.4,18.44,-15.39999999999418,-111.5
1846.0,18460.0,85708.0,75635.0,85722.2,75735.5,-50.1,-125.0,18.46,-14.19999999999709,-100.5
1848.0,18480.0,85718.0,75648.0,85722.2,75734.7,-31.7,-112.1,18.48,-4.19999999999709,-86.69999999999709
1850.0,18500.0,85637.0,75620.0,85721.6,75733.8,-21.3,-99.5,18.5,-84.60000000000582,-113.80000000000291
1852.0,18520.0,85465.0,75572.0,85719.5,75732.4,-38.1,-97.0,18.52,-254.5,-160.39999999999418
1854.0,18540.0,85217.0,75506.0,85715.1,75730.2,-106.0,-113.7,18.54,-498.1000000000058,-224.1999999999971
1856.0,18560.0,85027.0,75411.0,85708.8,75727.1,-234.5,-154.4,18.56,-681.8000000000029,-316.1000000000058
1858.0,18580.0,84918.0,75363.0,85701.1,75723.5,-400.8,-215.0,18.58,-783.1000000000058,-360.5
1860.0,18600.0,84900.0,75329.0,85693.2,75719.6,-563.7,-279.3,18.6,-793.1999999999971,-390.6000000000058
1862.0,18620.0,84968.0,75325.0,85685.7,75715.9,-686.2,-330.9,18.62,-717.6999999999971,-390.8999999999942
1864.0,18640.0,85000.0,75341.0,85678.7,75712.1,-747.3,-363.0,18.64,-678.6999999999971,-371.1000000000058
1866.0,18660.0,85063.0,75390.0,85672.4,75708.9,-753.4,-374.6,18.66,-609.3999999999942,-318.8999999999942
1868.0,18680.0,85120.0,75433.0,85666.8,75705.9,-718.6,-365.6,18.68,-546.8000000000029,-272.8999999999942
1870.0,18700.0,85179.0,75431.0,85661.8,75703.1,-658.3,-342.5,18.7,-482.8000000000029,-272.1000000000058
1872.0,18720.0,85248.0,75459.0,85657.5,75700.5,-586.3,-315.7,18.72,-409.5,-241.5
1874.0,18740.0,85310.0,75473.0,85653.9,75698.2,-510.0,-286.7,18.74,-343.8999999999942,-225.1999999999971
1876.0,18760.0,85382.0,75487.0,85650.9,75696.1,-435.2,-257.6,18.76,-268.8999999999942,-209.10000000000582
1878.0,18780.0,85382.0,75491.0,85648.2,75694.1,-366.6,-232.6,18.78,-266.1999999999971,-203.10000000000582
1880.0,18800.0,85374.0,75486.0,85645.4,75692.0,-314.9,-214.6,18.8,-271.3999999999942,-206.0
1882.0,18820.0,85364.0,75482.0,85642.6,75689.9,-283.7,-204.8,18.82,-278.6000000000058,-207.89999999999418
1884.0,18840.0,85376.0,75469.0,85640.0,75687.7,-267.2,-203.1,18.84,-264.0,-218.6999999999971
1886.0,18860.0,85384.0,75477.0,85637.4,75685.5,-258.5,-207.0,18.86,-253.39999999999418,-208.5
1888.0,18880.0,85421.0,75485.0,85635.2,75683.4,-251.2,-210.1,18.88,-214.1999999999971,-198.39999999999418
1890.0,18900.0,85460.0,75484.0,85633.3,75681.5,-238.1,-209.0,18.9,-173.3000000000029,-197.5
1892.0,18920.0,85506.0,75509.0,85631.9,75679.7,-215.5,-203.9,18.92,-125.89999999999418,-170.6999999999971
1894.0,18940.0,85553.0,75533.0,85631.0,75678.2,-182.6,-193.0,18.94,-78.0,-145.1999999999971
1896.0,18960.0,85613.0,75553.0,85630.7,75676.9,-140.7,-176.0,18.96,-17.69999999999709,-123.89999999999418
1898.0,18980.0,85664.0,75571.0,85630.9,75675.7,-91.2,-156.2,18.98,33.10000000000582,-104.69999999999709
1900.0,19000.0,85735.0,75606.0,85631.8,75675.0,-36.9,-133.9,19.0,103.19999999999709,-69.0
1902.0,19020.0,85759.0,75615.0,85632.9,75674.3,18.1,-109.3,19.02,126.10000000000582,-59.30000000000291
1904.0,19040.0,85803.0,75603.0,85634.4,75673.6,68.2,-87.9,19.04,168.60000000000582,-70.60000000000582
1906.0,19060.0,85831.0,75640.0,85636.3,75673.2,113.7,-72.5,19.06,194.6999999999971,-33.19999999999709
1908.0,19080.0,85859.0,75633.0,85638.5,75672.8,153.5,-57.8,19.08,220.5,-39.80000000000291
1910.0,19100.0,85879.0,75650.0,85640.8,75672.6,187.3,-44.4,19.1,238.1999999999971,-22.60000000000582
1912.0,19120.0,85909.0,75670.0,85643.5,75672.5,216.2,-32.1,19.12,265.5,-2.5
1914.0,19140.0,85963.0,75720.0,85646.5,75672.9,242.7,-17.2,19.14,316.5,47.10000000000582
1916.0,19160.0,85987.0,75724.0,85649.8,75673.3,270.7,3.2,19.16,337.1999999999971,50.69999999999709
1918.0,19180.0,86021.0,75737.0,85653.4,75673.9,299.1,23.1,19.18,367.6000000000058,63.10000000000582
1920.0,19200.0,86033.0,75752.0,85657.1,75674.6,326.9,41.0,19.2,375.8999999999942,77.39999999999418
1922.0,19220.0,86030.0,75740.0,85661.0,75675.4,352.8,57.1,19.22,369.0,64.60000000000582
1924.0,19240.0,85957.0,75677.0,85664.2,75675.7,366.6,64.9,19.24,292.8000000000029,1.3000000000029104
1926.0,19260.0,85806.0,75612.0,85666.0,75675.3,348.8,53.2,19.26,140.0,-63.30000000000291
1928.0,19280.0,85641.0,75548.0,85666.2,75674.2,285.0,19.3,19.28,-25.19999999999709,-126.19999999999709
1930.0,19300.0,85503.0,75485.0,85664.9,75672.5,177.6,-32.8,19.3,-161.89999999999418,-187.5
1932.0,19320.0,85437.0,75469.0,85662.7,75670.4,47.1,-93.2,19.32,-225.6999999999971,-201.39999999999418
1934.0,19340.0,85428.0,75452.0,85660.4,75668.3,-75.2,-146.9,19.34,-232.39999999999418,-216.3000000000029
1936.0,19360.0,85480.0,75473.0,85658.5,75666.2,-162.2,-185.4,19.36,-178.5,-193.1999999999971
1938.0,19380.0,85518.0,75495.0,85657.0,75664.5,-201.7,-203.0,19.38,-139.0,-169.5
1940.0,19400.0,85577.0,75527.0,85656.1,75663.1,-200.2,-199.2,19.4,-79.10000000000582,-136.10000000000582
1942.0,19420.0,85612.0,75538.0,85655.5,75661.9,-168.7,-180.7,19.42,-43.5,-123.89999999999418
1944.0,19440.0,85661.0,75561.0,85655.5,75660.9,-121.9,-156.4,19.44,5.5,-99.89999999999418
1946.0,19460.0,85693.0,75605.0,85655.8,75660.1,-70.1,-130.8,19.46,37.19999999999709,-55.10000000000582
1948.0,19480.0,85705.0,75587.0,85656.3,75659.4,-20.7,-105.4,19.48,48.69999999999709,-72.39999999999418
1950.0,19500.0,85709.0,75577.0,85656.9,75658.6,18.6,-87.5,19.5,52.10000000000582,-81.60000000000582
1952.0,19520.0,85704.0,75551.0,85657.4,75657.6,43.6,-79.4,19.52,46.60000000000582,-106.60000000000582
1954.0,19540.0,85687.0,75545.0,85657.6,75656.6,52.9,-80.0,19.54,29.39999999999418,-111.60000000000582
1956.0,19560.0,85644.0,75517.0,85657.5,75655.3,46.7,-88.3,19.56,-13.5,-138.3000000000029
1958.0,19580.0,85636.0,75511.0,85657.2,75653.9,27.7,-102.9,19.58,-21.19999999999709,-142.89999999999418
1960.0,19600.0,85623.0,75514.0,85657.0,75652.5,6.7,-118.7,19.6,-34.0,-138.5
1962.0,19620.0,85643.0,75507.0,85656.9,75651.0,-7.9,-131.5,19.62,-13.89999999999418,-144.0
1964.0,19640.0,85657.0,75529.0,85656.9,75649.7,-13.2,-139.0,19.64,0.10000000000582077,-120.69999999999709
1966.0,19660.0,85714.0,75513.0,85656.1,75648.1,-27.1,-144.2,19.66,57.89999999999418,-135.10000000000582
1968.0,19680.0,85771.0,75532.0,85657.0,75646.9,-26.3,-144.6,19.68,114.0,-114.89999999999418
1970.0,19700.0,85785.0,75549.0,85658.1,75645.9,6.2,-135.9,19.7,126.89999999999418,-96.89999999999418
1972.0,19720.0,85817.0,75558.0,85659.6,75645.1,50.0,-121.8,19.72,157.39999999999418,-87.10000000000582
1974.0,19740.0,85841.0,75568.0,85661.4,75644.2,95.1,-107.2,19.74,179.60000000000582,-76.19999999999709
1976.0,19760.0,85865.0,75561.0,85663.4,75643.4,137.3,-95.3,19.76,201.60000000000582,-82.39999999999418
1978.0,19780.0,85879.0,75566.0,85665.6,75642.6,173.0,-86.8,19.78,213.39999999999418,-76.60000000000582
1980.0,19800.0,85908.0,75569.0,85667.9,75641.9,199.6,-80.5,19.8,240.10000000000582,-72.89999999999418
1982.0,19820.0,85935.0,75564.0,85670.5,75641.1,220.3,-76.0,19.82,264.5,-77.10000000000582
1984.0,19840.0,85933.0,75582.0,85673.0,75640.5,237.0,-73.1,19.84,260.0,-58.5
1986.0,19860.0,85950.0,75566.0,85675.6,75639.7,248.8,-70.9,19.86,274.3999999999942,-73.69999999999709
1988.0,19880.0,85955.0,75571.0,85678.4,75639.0,258.7,-69.9,19.88,276.6000000000058,-68.0
1990.0,19900.0,85957.0,75572.0,85681.2,75638.4,267.9,-68.6,19.9,275.8000000000029,-66.39999999999418
1992.0,19920.0,85984.0,75588.0,85684.2,75637.9,276.2,-65.7,19.92,299.8000000000029,-49.89999999999418
1994.0,19940.0,85996.0,75590.0,85687.3,75637.4,285.9,-59.8,19.94,308.6999999999971,-47.39999999999418
1996.0,19960.0,86006.0,75590.0,85690.5,75637.0,296.5,-53.3,19.96,315.5,-47.0
1998.0,19980.0,85977.0,75585.0,85693.4,75636.4,303.9,-49.8,19.98,283.6000000000058,-51.39999999999418
2000.0,20000.0,85867.0,75506.0,85695.6,75635.3,298.4,-53.6,20.0,171.39999999999418,-129.3000000000029
2002.0,20020.0,85691.0,75432.0,85695.9,75633.5,259.5,-75.5,20.02,-4.899999999994179,-201.5
2004.0,20040.0,85480.0,75347.0,85694.4,75630.8,172.4,-118.5,20.04,-214.39999999999418,-283.8000000000029
2006.0,20060.0,85360.0,75300.0,85691.4,75627.8,40.1,-176.0,20.06,-331.3999999999942,-327.8000000000029
2008.0,20080.0,85270.0,75275.0,85687.3,75624.3,-110.7,-237.5,20.08,-417.3000000000029,-349.3000000000029
2010.0,20100.0,85262.0,75271.0,85683.1,75620.8,-249.3,-291.2,20.1,-421.1000000000058,-349.8000000000029
2012.0,20120.0,85268.0,75286.0,85678.8,75617.3,-351.5,-327.8,20.12,-410.8000000000029,-331.3000000000029
2014.0,20140.0,85308.0,75300.0,85675.1,75614.1,-407.4,-343.9,20.14,-367.1000000000058,-314.1000000000058
2016.0,20160.0,85330.0,75308.0,85671.6,75611.1,-420.3,-342.6,20.16,-341.6000000000058,-303.1000000000058
2018.0,20180.0,85347.0,75323.0,85668.3,75608.2,-405.5,-330.7,20.18,-321.3000000000029,-285.1999999999971
2020.0,20200.0,85402.0,75349.0,85665.4,75605.6,-375.8,-312.7,20.2,-263.3999999999942,-256.6000000000058
2022.0,20220.0,85424.0,75355.0,85663.1,75603.1,-334.8,-291.1,20.22,-239.10000000000582,-248.10000000000582
2024.0,20240.0,85447.0,75376.0,85661.0,75600.8,-290.3,-269.8,20.24,-214.0,-224.8000000000029
2026.0,20260.0,85471.0,75369.0,85659.0,75598.4,-250.4,-251.1,20.26,-188.0,-229.39999999999418
2028.0,20280.0,85482.0,75362.0,85657.3,75596.0,-217.7,-239.2,20.28,-175.3000000000029,-234.0
2030.0,20300.0,85446.0,75334.0,85655.2,75593.5,-195.9,-235.1,20.3,-209.1999999999971,-259.5
2032.0,20320.0,85434.0,75324.0,85653.0,75590.9,-190.3,-237.2,20.32,-219.0,-266.8999999999942
2034.0,20340.0,85415.0,75322.0,85650.6,75588.3,-196.7,-243.4,20.34,-235.60000000000582,-266.3000000000029
2036.0,20360.0,85418.0,75339.0,85648.3,75585.8,-208.3,-249.9,20.36,-230.3000000000029,-246.8000000000029
2038.0,20380.0,85429.0,75361.0,85646.2,75583.4,-217.3,-252.4,20.38,-217.1999999999971,-222.39999999999418
2040.0,20400.0,85467.0,75354.0,85644.3,75581.1,-218.3,-249.2,20.4,-177.3000000000029,-227.10000000000582
2042.0,20420.0,85477.0,75359.0,85642.6,75578.7,-209.5,-243.7,20.42,-165.60000000000582,-219.6999999999971
2044.0,20440.0,85515.0,75366.0,85641.2,75576.6,-193.8,-235.6,20.44,-126.19999999999709,-210.60000000000582
2046.0,20460.0,85561.0,75378.0,85640.1,75574.8,-170.8,-222.6,20.46,-79.10000000000582,-196.8000000000029
2048.0,20480.0,85571.0,75363.0,85639.4,75572.7,-141.4,-210.1,20.48,-68.39999999999418,-209.6999999999971
2050.0,20500.0,85610.0,75392.0,85638.9,75570.9,-110.6,-202.0,20.5,-28.89999999999418,-178.89999999999418
2052.0,20520.0,85626.0,75409.0,85638.7,75569.2,-78.8,-193.4,20.52,-12.69999999999709,-160.1999999999971
2054.0,20540.0,85666.0,75398.0,85639.0,75567.4,-45.4,-184.4,20.54,27.0,-169.39999999999418
2056.0,20560.0,85668.0,75402.0,85639.3,75565.7,-12.9,-178.3,20.56,28.69999999999709,-163.6999999999971
2058.0,20580.0,85697.0,75399.0,85639.8,75564.0,13.0,-173.6,20.58,57.19999999999709,-165.0
2060.0,20600.0,85725.0,75404.0,85640.5,75562.5,33.9,-167.7,20.6,84.5,-158.5
2062.0,20620.0,85715.0,75418.0,85641.3,75561.0,52.4,-160.9,20.62,73.69999999999709,-143.0
2064.0,20640.0,85734.0,75434.0,85642.1,75559.7,66.2,-152.8,20.64,91.89999999999418,-125.69999999999709
2066.0,20660.0,85723.0,75435.0,85642.9,75558.4,77.0,-143.5,20.66,80.10000000000582,-123.39999999999418
2068.0,20680.0,85762.0,75445.0,85644.2,75557.3,87.3,-134.0,20.68,117.80000000000291,-112.30000000000291
2070.0,20700.0,85740.0,75449.0,85645.2,75556.2,98.7,-124.9,20.7,94.80000000000291,-107.19999999999709
2072.0,20720.0,85681.0,75418.0,85645.8,75554.9,101.5,-119.1,20.72,35.19999999999709,-136.89999999999418
2074.0,20740.0,85507.0,75344.0,85644.8,75553.0,79.0,-124.2,20.74,-137.8000000000029,-209.0
2076.0,20760.0,85258.0,75250.0,85641.6,75550.2,7.4,-150.3,20.76,-383.6000000000058,-300.1999999999971
2078.0,20780.0,85019.0,75166.0,85636.0,75546.6,-125.7,-199.6,20.78,-617.0,-380.6000000000058
2080.0,20800.0,84876.0,75128.0,85628.7,75542.5,-305.4,-264.5,20.8,-752.6999999999971,-414.5
2082.0,20820.0,84791.0,75089.0,85620.6,75538.0,-493.5,-330.9,20.82,-829.6000000000058,-449.0
2084.0,20840.0,84768.0,75103.0,85612.0,75533.7,-656.0,-386.3,20.84,-844.0,-430.6999999999971
2086.0,20860.0,84760.0,75105.0,85603.6,75529.4,-770.8,-421.0,20.86,-843.6000000000058,-424.3999999999942
2088.0,20880.0,84786.0,75112.0,85595.4,75525.3,-834.2,-434.9,20.88,-809.3999999999942,-413.3000000000029
2090.0,20900.0,84801.0,75159.0,85587.4,75521.5,-853.6,-432.6,20.9,-786.3999999999942,-362.5
2092.0,20920.0,84832.0,75157.0,85579.8,75517.8,-843.0,-416.6,20.92,-747.8000000000029,-360.8000000000029
2094.0,20940.0,84891.0,75181.0,85572.8,75514.4,-811.5,-394.4,20.94,-681.8000000000029,-333.3999999999942
2096.0,20960.0,84945.0,75187.0,85566.5,75511.1,-763.0,-370.4,20.96,-621.5,-324.1000000000058
2098.0,20980.0,85035.0,75213.0,85561.0,75508.1,-702.8,-347.1,20.98,-526.0,-295.1000000000058
2100.0,21000.0,85082.0,75205.0,85556.1,75505.0,-633.5,-325.9,21.0,-474.1000000000058,-300.0
2102.0,21020.0,85107.0,75194.0,85551.5,75501.9,-564.7,-311.4,21.02,-444.5,-307.8999999999942
2104.0,21040.0,85107.0,75201.0,85547.1,75498.9,-506.9,-304.1,21.04,-440.1000000000058,-297.8999999999942
2106.0,21060.0,85112.0,75185.0,85542.8,75495.9,-465.3,-299.5,21.06,-430.8000000000029,-310.8999999999942
2108.0,21080.0,85110.0,75197.0,85538.4,75492.9,-440.3,-298.9,21.08,-428.3999999999942,-295.8999999999942
2110.0,21100.0,85129.0,75194.0,85534.3,75489.8,-426.4,-299.4,21.1,-405.3000000000029,-295.8000000000029
2112.0,21120.0,85167.0,75217.0,85530.4,75487.0,-414.8,-298.0,21.12,-363.3999999999942,-270.0
2114.0,21140.0,85186.0,75232.0,85527.0,75484.4,-398.0,-290.9,21.14,-341.0,-252.39999999999418
2116.0,21160.0,85216.0,75265.0,85523.8,75482.1,-375.5,-277.4,21.16,-307.8000000000029,-217.10000000000582
2118.0,21180.0,85245.0,75288.0,85520.9,75480.0,-348.7,-258.0,21.18,-275.8999999999942,-192.0
2120.0,21200.0,85279.0,75298.0,85518.5,75478.2,-317.4,-234.7,21.2,-239.5,-180.1999999999971
2122.0,21220.0,85288.0,75304.0,85516.1,75476.5,-285.0,-211.0,21.22,-228.10000000000582,-172.5
2124.0,21240.0,85302.0,75323.0,85514.0,75475.0,-256.8,-189.4,21.24,-212.0,-152.0
2126.0,21260.0,85328.0,75310.0,85512.0,75473.3,-233.1,-171.6,21.26,-184.0,-163.3000000000029
2128.0,21280.0,85316.0,75320.0,85510.0,75471.8,-213.8,-160.8,21.28,-194.0,-151.8000000000029
2130.0,21300.0,85331.0,75319.0,85508.2,75470.2,-200.0,-155.8,21.3,-177.1999999999971,-151.1999999999971
2132.0,21320.0,85344.0,75305.0,85506.6,75468.5,-187.9,-154.9,21.32,-162.60000000000582,-163.5
2134.0,21340.0,85372.0,75306.0,85505.1,75466.9,-175.2,-157.1,21.34,-133.10000000000582,-160.89999999999418
2136.0,21360.0,85399.0,75291.0,85504.1,75465.2,-158.2,-160.1,21.36,-105.10000000000582,-174.1999999999971
2138.0,21380.0,85455.0,75304.0,85503.4,75463.6,-135.9,-161.6,21.38,-48.39999999999418,-159.60000000000582
2140.0,21400.0,85480.0,75302.0,85503.0,75462.0,-106.7,-161.3,21.4,-23.0,-160.0
2142.0,21420.0,85512.0,75310.0,85503.0,75460.5,-74.3,-160.1,21.42,9.0,-150.5
2144.0,21440.0,85504.0,75338.0,85503.0,75459.1,-42.6,-157.1,21.44,1.0,-121.10000000000582
2146.0,21460.0,85459.0,75303.0,85502.8,75457.6,-18.4,-151.1,21.46,-43.80000000000291,-154.60000000000582
2148.0,21480.0,85317.0,75251.0,85501.5,75455.6,-16.4,-152.2,21.48,-184.5,-204.60000000000582
2150.0,21500.0,85245.0,75288.0,85499.0,75453.7,-56.7,-165.1,21.5,-254.0,-165.6999999999971
2152.0,21520.0,84925.0,75090.0,85493.6,75450.3,-146.8,-188.1,21.52,-568.6000000000058,-360.3000000000029
2154.0,21540.0,84725.0,75018.0,85486.2,75446.2,-298.2,-240.5,21.54,-761.1999999999971,-428.1999999999971
2156.0,21560.0,84657.0,75002.0,85478.0,75441.8,-479.2,-308.2,21.56,-821.0,-439.8000000000029
2158.0,21580.0,84648.0,75012.0,85469.7,75437.4,-640.9,-369.0,21.58,-821.6999999999971,-425.3999999999942
2160.0,21600.0,84698.0,75013.0,85462.1,75433.2,-748.3,-409.2,21.6,-764.1000000000058,-420.1999999999971
2162.0,21620.0,84749.0,75041.0,85454.9,75429.2,-792.9,-427.8,21.62,-705.8999999999942,-388.1999999999971
2164.0,21640.0,84826.0,75040.0,85448.5,75425.4,-785.4,-426.0,21.64,-622.5,-385.3999999999942
2166.0,21660.0,84905.0,75075.0,85442.7,75421.8,-740.3,-411.1,21.66,-537.6999999999971,-346.8000000000029
2168.0,21680.0,84943.0,75099.0,85437.6,75418.6,-673.1,-387.6,21.68,-494.6000000000058,-319.6000000000058
2170.0,21700.0,85030.0,75131.0,85433.2,75415.7,-597.8,-358.5,21.7,-403.1999999999971,-284.6999999999971
2172.0,21720.0,85081.0,75165.0,85429.6,75413.1,-517.8,-326.9,21.72,-348.6000000000058,-248.10000000000582
2174.0,21740.0,85124.0,75177.0,85426.6,75410.6,-439.5,-295.4,21.74,-302.6000000000058,-233.60000000000582
2176.0,21760.0,85137.0,75181.0,85423.7,75408.4,-371.1,-266.6,21.76,-286.6999999999971,-227.39999999999418
2178.0,21780.0,85151.0,75177.0,85421.0,75406.2,-319.8,-243.6,21.78,-270.0,-229.1999999999971
2180.0,21800.0,85149.0,75185.0,85418.2,75403.9,-286.6,-228.8,21.8,-269.1999999999971,-218.89999999999418
2182.0,21820.0,85165.0,75196.0,85415.6,75401.8,-268.4,-219.8,21.82,-250.60000000000582,-205.8000000000029
2184.0,21840.0,85180.0,75189.0,85413.2,75399.7,-257.2,-213.7,21.84,-233.1999999999971,-210.6999999999971
2186.0,21860.0,85206.0,75207.0,85411.0,75397.7,-246.5,-209.6,21.86,-205.0,-190.6999999999971
2188.0,21880.0,85233.0,75216.0,85409.2,75395.8,-231.7,-204.0,21.88,-176.1999999999971,-179.8000000000029
2190.0,21900.0,85278.0,75245.0,85407.7,75394.3,-211.7,-193.9,21.9,-129.6999999999971,-149.3000000000029
2192.0,21920.0,85327.0,75251.0,85406.7,75392.8,-182.8,-179.3,21.92,-79.69999999999709,-141.8000000000029
2194.0,21940.0,85359.0,75280.0,85406.2,75391.6,-144.6,-162.6,21.94,-47.19999999999709,-111.60000000000582
2196.0,21960.0,85392.0,75305.0,85406.0,75390.7,-103.0,-143.2,21.96,-14.0,-85.69999999999709
2198.0,21980.0,85447.0,75303.0,85406.3,75389.8,-59.9,-122.2,21.98,40.69999999999709,-86.80000000000291
2200.0,22000.0,85493.0,75320.0,85407.1,75389.1,-15.5,-103.3,22.0,85.89999999999418,-69.10000000000582
2202.0,22020.0,85501.0,75335.0,85408.0,75388.5,28.0,-86.5,22.02,93.0,-53.5
2204.0,22040.0,85560.0,75366.0,85409.4,75388.3,65.8,-69.0,22.04,150.60000000000582,-22.30000000000291
2206.0,22060.0,85565.0,75374.0,85411.0,75388.1,101.9,-50.2,22.06,154.0,-14.10000000000582
2208.0,22080.0,85599.0,75384.0,85412.8,75388.0,133.3,-33.2,22.08,186.1999999999971,-4.0
2210.0,22100.0,85603.0,75395.0,85414.7,75388.0,158.7,-19.2,22.1,188.3000000000029,7.0
2212.0,22120.0,85654.0,75398.0,85417.0,75388.1,180.1,-6.9,22.12,237.0,9.89999999999418
2214.0,22140.0,85657.0,75400.0,85419.4,75388.3,201.8,3.2,22.14,237.60000000000582,11.69999999999709
2216.0,22160.0,85680.0,75411.0,85421.9,75388.5,220.0,10.9,22.16,258.1000000000058,22.5
2218.0,22180.0,85711.0,75430.0,85424.7,75388.9,237.4,17.9,22.18,286.3000000000029,41.10000000000582
2220.0,22200.0,85730.0,75446.0,85427.7,75389.4,257.5,26.9,22.2,302.3000000000029,56.60000000000582
2222.0,22220.0,85751.0,75463.0,85430.9,75390.1,278.6,38.4,22.22,320.1000000000058,72.89999999999418
2224.0,22240.0,85721.0,75439.0,85434.0,75390.6,297.0,49.0,22.24,287.0,48.39999999999418
2226.0,22260.0,85608.0,75383.0,85436.1,75390.6,298.6,50.1,22.26,171.89999999999418,-7.600000000005821
2228.0,22280.0,85407.0,75297.0,85436.3,75389.9,261.1,33.4,22.28,-29.30000000000291,-92.89999999999418
2230.0,22300.0,85162.0,75199.0,85434.2,75388.4,166.4,-5.6,22.3,-272.1999999999971,-189.39999999999418
2232.0,22320.0,84999.0,75127.0,85430.2,75386.0,15.3,-66.2,22.32,-431.1999999999971,-259.0
2234.0,22340.0,84912.0,75120.0,85425.2,75383.4,-160.9,-136.8,22.34,-513.1999999999971,-263.3999999999942
2236.0,22360.0,84915.0,75153.0,85420.1,75380.9,-321.2,-197.8,22.36,-505.1000000000058,-227.89999999999418
2238.0,22380.0,84949.0,75142.0,85415.3,75378.4,-432.4,-236.1,22.38,-466.3000000000029,-236.39999999999418
2240.0,22400.0,84993.0,75163.0,85411.0,75376.1,-485.3,-253.3,22.4,-418.0,-213.10000000000582
2242.0,22420.0,85054.0,75166.0,85407.3,75374.0,-488.5,-251.7,22.42,-353.3000000000029,-208.0
2244.0,22440.0,85114.0,75177.0,85404.1,75372.2,-455.7,-236.9,22.44,-290.1000000000058,-195.1999999999971
2246.0,22460.0,85160.0,75188.0,85401.5,75370.4,-401.5,-217.0,22.46,-241.5,-182.39999999999418
2248.0,22480.0,85213.0,75228.0,85399.5,75368.9,-338.0,-196.8,22.48,-186.5,-140.89999999999418
2250.0,22500.0,85251.0,75253.0,85397.9,75367.6,-272.4,-175.5,22.5,-146.89999999999418,-114.60000000000582
2252.0,22520.0,85284.0,75260.0,85396.8,75366.4,-211.3,-153.8,22.52,-112.80000000000291,-106.39999999999418
2254.0,22540.0,85277.0,75261.0,85395.6,75365.3,-161.2,-135.4,22.54,-118.60000000000582,-104.30000000000291
2256.0,22560.0,85293.0,75259.0,85394.6,75364.2,-127.7,-121.2,22.56,-101.60000000000582,-105.19999999999709
2258.0,22580.0,85294.0,75263.0,85393.5,75363.3,-108.6,-108.9,22.58,-99.5,-100.30000000000291
2260.0,22600.0,85281.0,75268.0,85392.4,75362.4,-100.9,-99.4,22.6,-111.39999999999418,-94.39999999999418
2262.0,22620.0,85286.0,75279.0,85391.2,75361.5,-101.4,-93.5,22.62,-105.19999999999709,-82.5
2264.0,22640.0,85290.0,75298.0,85390.2,75360.8,-103.2,-88.6,22.64,-100.19999999999709,-62.80000000000291
2266.0,22660.0,85323.0,75308.0,85389.5,75360.2,-100.2,-81.3,22.66,-66.5,-52.19999999999709
2268.0,22680.0,85353.0,75320.0,85389.1,75359.7,-89.4,-71.4,22.68,-36.10000000000582,-39.69999999999709
2270.0,22700.0,85416.0,75349.0,85389.2,75359.6,-69.6,-58.4,22.7,26.80000000000291,-10.60000000000582
2272.0,22720.0,85459.0,75373.0,85389.6,75359.6,-38.9,-40.5,22.72,69.39999999999418,13.39999999999418
2274.0,22740.0,85489.0,75384.0,85390.5,75359.8,-0.2,-20.0,22.74,98.5,24.19999999999709
2276.0,22760.0,85527.0,75399.0,85391.8,75360.2,41.3,0.5,22.76,135.1999999999971,38.80000000000291
2278.0,22780.0,85558.0,75403.0,85393.4,75360.6,82.6,18.5,22.78,164.60000000000582,42.39999999999418
2280.0,22800.0,85595.0,75395.0,85395.4,75361.0,122.6,30.8,22.8,199.60000000000582,34.0
2282.0,22820.0,85623.0,75404.0,85397.5,75361.4,159.0,37.9,22.82,225.5,42.60000000000582
2284.0,22840.0,85645.0,75409.0,85399.9,75361.8,190.6,41.8,22.84,245.10000000000582,47.19999999999709
2286.0,22860.0,85659.0,75394.0,85402.5,75362.2,216.9,43.5,22.86,256.5,31.80000000000291
2288.0,22880.0,85669.0,75414.0,85405.1,75362.6,237.4,42.5,22.88,263.8999999999942,51.39999999999418
2290.0,22900.0,85684.0,75415.0,85407.9,75363.2,253.8,43.2,22.9,276.1000000000058,51.80000000000291
2292.0,22920.0,85689.0,75420.0,85410.7,75363.7,267.2,45.9,22.92,278.3000000000029,56.30000000000291
2294.0,22940.0,85286.0,75279.0,85411.6,75363.6,269.1,46.4,22.94,-125.60000000000582,-84.60000000000582
2296.0,22960.0,85734.0,75447.0,85414.7,75364.3,236.8,37.3,22.96,319.3000000000029,82.69999999999709
2298.0,22980.0,85738.0,75442.0,85417.9,75365.1,237.6,41.5,22.98,320.1000000000058,76.89999999999418
2300.0,23000.0,85733.0,75426.0,85421.0,75365.7,258.0,51.5,23.0,312.0,60.30000000000291
2302.0,23020.0,85640.0,75394.0,85423.5,75366.1,275.9,56.7,23.02,216.5,27.89999999999418
2304.0,23040.0,85492.0,75312.0,85424.6,75365.8,265.3,48.5,23.04,67.39999999999418,-53.80000000000291
2306.0,23060.0,85289.0,75236.0,85423.7,75364.7,205.7,18.7,23.06,-134.6999999999971,-128.6999999999971
2308.0,23080.0,85130.0,75167.0,85421.2,75362.9,92.6,-32.1,23.08,-291.1999999999971,-195.89999999999418
2310.0,23100.0,85070.0,75160.0,85417.7,75360.8,-51.2,-93.0,23.1,-347.6999999999971,-200.8000000000029
2312.0,23120.0,85033.0,75154.0,85414.0,75358.8,-186.9,-146.4,23.12,-381.0,-204.8000000000029
2314.0,23140.0,85086.0,75167.0,85410.6,75356.8,-288.2,-183.0,23.14,-324.6000000000058,-189.8000000000029
2316.0,23160.0,85148.0,75204.0,85407.8,75355.1,-338.6,-199.6,23.16,-259.8000000000029,-151.10000000000582
2318.0,23180.0,85223.0,75229.0,85405.8,75353.8,-337.5,-194.5,23.18,-182.8000000000029,-124.80000000000291
2320.0,23200.0,85270.0,75243.0,85404.2,75352.7,-298.2,-173.5,23.2,-134.1999999999971,-109.69999999999709
2322.0,23220.0,85327.0,75274.0,85403.3,75351.9,-239.0,-145.5,23.22,-76.30000000000291,-77.89999999999418
2324.0,23240.0,85395.0,75298.0,85403.0,75351.4,-171.8,-115.1,23.24,-8.0,-53.39999999999418
2326.0,23260.0,85433.0,75322.0,85403.3,75351.1,-102.8,-85.5,23.26,29.69999999999709,-29.10000000000582
2328.0,23280.0,85454.0,75351.0,85403.8,75350.9,-40.2,-59.2,23.28,50.19999999999709,0.10000000000582077
2330.0,23300.0,85454.0,75322.0,85404.3,75350.6,8.9,-37.5,23.3,49.69999999999709,-28.60000000000582
2332.0,23320.0,85467.0,75330.0,85405.0,75350.4,41.8,-25.3,23.32,62.0,-20.39999999999418
2334.0,23340.0,85458.0,75316.0,85405.5,75350.1,59.3,-20.3,23.34,52.5,-34.10000000000582
2336.0,23360.0,85477.0,75319.0,85406.0,75349.8,64.4,-20.1,23.36,71.0,-30.80000000000291
2338.0,23380.0,85471.0,75310.0,85406.6,75349.5,65.2,-22.4,23.38,64.39999999999418,-39.5
2340.0,23400.0,85498.0,75329.0,85407.4,75349.3,65.8,-25.7,23.4,90.60000000000582,-20.30000000000291
2342.0,23420.0,85533.0,75362.0,85408.6,75349.2,72.8,-25.8,23.42,124.39999999999418,12.80000000000291
2344.0,23440.0,85576.0,75360.0,85410.3,75349.3,91.6,-18.9,23.44,165.6999999999971,10.69999999999709
2346.0,23460.0,85613.0,75389.0,85412.2,75349.6,120.4,-7.8,23.46,200.8000000000029,39.39999999999418
2348.0,23480.0,85684.0,75397.0,85414.9,75350.0,157.0,7.9,23.48,269.1000000000058,47.0
2350.0,23500.0,85761.0,75421.0,85418.0,75350.8,201.8,27.1,23.5,343.0,70.19999999999709
2352.0,23520.0,85783.0,75433.0,85421.5,75351.6,251.4,47.2,23.52,361.5,81.39999999999418
2354.0,23540.0,85813.0,75442.0,85425.2,75352.5,297.1,64.9,23.54,387.8000000000029,89.5
2356.0,23560.0,85833.0,75448.0,85429.3,75353.4,338.4,78.2,23.56,403.6999999999971,94.60000000000582
2358.0,23580.0,85859.0,75455.0,85433.6,75354.4,375.8,87.7,23.58,425.3999999999942,100.60000000000582
2360.0,23600.0,85866.0,75455.0,85438.0,75355.4,406.2,94.9,23.6,428.0,99.60000000000582
2362.0,23620.0,85892.0,75458.0,85442.6,75356.5,427.7,100.2,23.62,449.3999999999942,101.5
2364.0,23640.0,85911.0,75479.0,85447.1,75357.7,442.1,104.9,23.64,463.8999999999942,121.30000000000291
2366.0,23660.0,85918.0,75477.0,85451.8,75358.9,451.8,110.5,23.66,466.1999999999971,118.10000000000582
2368.0,23680.0,85958.0,75490.0,85456.6,75360.2,459.4,115.8,23.68,501.3999999999942,129.8000000000029
2370.0,23700.0,85960.0,75498.0,85461.6,75361.5,469.8,121.2,23.7,498.3999999999942,136.5
2372.0,23720.0,85966.0,75492.0,85466.6,75362.8,481.4,125.8,23.72,499.3999999999942,129.1999999999971
2374.0,23740.0,85979.0,75493.0,85471.8,75364.1,492.7,129.0,23.74,507.1999999999971,128.89999999999418
2376.0,23760.0,85960.0,75468.0,85476.8,75365.3,501.5,130.3,23.76,483.1999999999971,102.69999999999709
2378.0,23780.0,85843.0,75415.0,85480.7,75366.0,495.7,123.4,23.78,362.3000000000029,49.0
2380.0,23800.0,85680.0,75354.0,85483.1,75366.0,455.0,100.6,23.8,196.89999999999418,-12.0
2382.0,23820.0,85534.0,75283.0,85484.0,75365.3,370.5,60.2,23.82,50.0,-82.30000000000291
2384.0,23840.0,85439.0,75240.0,85483.8,75364.1,253.6,6.5,23.84,-44.80000000000291,-124.10000000000582
2386.0,23860.0,85394.0,75221.0,85482.9,75362.7,129.3,-49.1,23.86,-88.89999999999418,-141.6999999999971
2388.0,23880.0,85443.0,75238.0,85482.4,75361.5,25.9,-93.6,23.88,-39.39999999999418,-123.5
2390.0,23900.0,85495.0,75257.0,85482.4,75360.4,-32.1,-118.4,23.9,12.60000000000582,-103.39999999999418
2392.0,23920.0,85547.0,75283.0,85483.0,75359.5,-43.2,-124.3,23.92,64.0,-76.5
2394.0,23940.0,85592.0,75320.0,85483.9,75359.1,-20.3,-113.8,23.94,108.10000000000582,-39.10000000000582
2396.0,23960.0,85661.0,75338.0,85485.5,75358.8,23.9,-91.0,23.96,175.5,-20.80000000000291
2398.0,23980.0,85706.0,75357.0,85487.5,75358.7,79.9,-64.4,23.98,218.5,-1.6999999999970896
2400.0,24000.0,85758.0,75372.0,85490.1,75358.8,138.9,-38.0,24.0,267.8999999999942,13.19999999999709
2402.0,24020.0,85784.0,75383.0,85492.9,75359.1,195.0,-12.8,24.02,291.1000000000058,23.89999999999418
2404.0,24040.0,85783.0,75372.0,85495.9,75359.2,241.8,7.1,24.04,287.1000000000058,12.80000000000291
2406.0,24060.0,85756.0,75352.0,85498.5,75359.2,271.0,16.7,24.06,257.5,-7.19999999999709
2408.0,24080.0,85732.0,75335.0,85500.8,75359.0,278.0,14.2,24.08,231.1999999999971,-24.0
2410.0,24100.0,85733.0,75329.0,85503.1,75358.7,268.7,3.5,24.1,229.89999999999418,-29.69999999999709
2412.0,24120.0,85694.0,75315.0,85505.1,75358.3,251.5,-10.7,24.12,188.89999999999418,-43.30000000000291
2414.0,24140.0,85736.0,75320.0,85507.2,75357.9,231.4,-23.5,24.14,228.8000000000029,-37.89999999999418
2416.0,24160.0,85747.0,75338.0,85509.5,75357.7,219.0,-31.4,24.16,237.5,-19.69999999999709
2418.0,24180.0,85780.0,75338.0,85512.1,75357.5,219.4,-32.9,24.18,267.8999999999942,-19.5
2420.0,24200.0,85819.0,75387.0,85515.1,75357.6,233.1,-27.9,24.2,303.8999999999942,29.39999999999418
2422.0,24220.0,85855.0,75382.0,85518.4,75357.8,257.9,-14.8,24.22,336.6000000000058,24.19999999999709
2424.0,24240.0,85903.0,75395.0,85522.2,75358.1,290.8,0.2,24.24,380.8000000000029,36.89999999999418
2426.0,24260.0,85937.0,75388.0,85526.3,75358.4,328.1,14.9,24.26,410.6999999999971,29.60000000000582
2428.0,24280.0,85981.0,75401.0,85530.6,75359.0,365.1,29.2,24.28,450.3999999999942,42.0
2430.0,24300.0,85995.0,75400.0,85535.2,75359.5,400.2,40.3,24.3,459.8000000000029,40.5
2432.0,24320.0,86019.0,75421.0,85540.0,75360.1,430.6,46.8,24.32,479.0,60.89999999999418
2434.0,24340.0,86022.0,75442.0,85544.8,75360.7,455.2,51.8,24.34,477.1999999999971,81.30000000000291
2436.0,24360.0,86032.0,75424.0,85549.7,75361.2,472.8,56.4,24.36,482.3000000000029,62.80000000000291
2438.0,24380.0,86036.0,75425.0,85554.6,75361.8,484.1,58.8,24.38,481.3999999999942,63.19999999999709
2440.0,24400.0,86064.0,75423.0,85559.7,75362.5,490.9,61.2,24.4,504.3000000000029,60.5
2442.0,24420.0,86098.0,75444.0,85564.9,75363.4,497.3,65.9,24.42,533.1000000000058,80.60000000000582
2444.0,24440.0,86088.0,75446.0,85570.1,75364.3,505.6,72.9,24.44,517.8999999999942,81.69999999999709
2446.0,24460.0,86091.0,75460.0,85575.3,75365.2,511.8,79.9,24.46,515.6999999999971,94.80000000000291
2448.0,24480.0,86025.0,75437.0,85580.0,75366.0,512.7,84.6,24.48,445.0,71.0
2450.0,24500.0,85888.0,75353.0,85583.6,75366.0,494.3,78.4,24.5,304.3999999999942,-13.0
2452.0,24520.0,85719.0,75281.0,85585.4,75365.3,436.5,50.7,24.52,133.60000000000582,-84.30000000000291
2454.0,24540.0,85586.0,75215.0,85585.7,75364.0,334.5,3.3,24.54,0.3000000000029104,-149.0
2456.0,24560.0,85492.0,75169.0,85585.0,75362.2,205.6,-54.6,24.56,-93.0,-193.1999999999971
2458.0,24580.0,85468.0,75154.0,85583.8,75360.1,75.9,-112.3,24.58,-115.80000000000291,-206.10000000000582
2460.0,24600.0,85490.0,75177.0,85582.7,75358.3,-26.8,-157.5,24.6,-92.69999999999709,-181.3000000000029
2462.0,24620.0,85535.0,75198.0,85582.1,75356.6,-85.4,-181.8,24.62,-47.10000000000582,-158.60000000000582
2464.0,24640.0,85594.0,75225.0,85582.1,75355.2,-97.2,-186.4,24.64,11.89999999999418,-130.1999999999971
2466.0,24660.0,85636.0,75255.0,85582.6,75354.1,-73.4,-174.3,24.66,53.39999999999418,-99.10000000000582
2468.0,24680.0,85680.0,75266.0,85583.4,75353.1,-30.1,-151.2,24.68,96.60000000000582,-87.10000000000582
2470.0,24700.0,85729.0,75287.0,85584.7,75352.4,20.8,-124.9,24.7,144.3000000000029,-65.39999999999418
2472.0,24720.0,85769.0,75321.0,85586.5,75352.0,73.0,-98.1,24.72,182.5,-31.0
2474.0,24740.0,85793.0,75316.0,85588.5,75351.7,122.5,-71.4,24.74,204.5,-35.69999999999709
2476.0,24760.0,85803.0,75319.0,85590.6,75351.4,163.4,-50.1,24.76,212.39999999999418,-32.39999999999418
2478.0,24780.0,85774.0,75320.0,85592.4,75351.0,189.9,-37.7,24.78,181.60000000000582,-31.0
2480.0,24800.0,85756.0,75311.0,85595.7,75351.2,220.8,-23.4,24.8,160.3000000000029,-40.19999999999709
2482.0,24820.0,85739.0,75298.0,85597.1,75350.7,235.5,-15.7,24.82,141.89999999999418,-52.69999999999709
2484.0,24840.0,85735.0,75290.0,85598.5,75350.1,217.6,-22.4,24.84,136.5,-60.10000000000582
2486.0,24860.0,85738.0,75313.0,85599.9,75349.6,189.3,-33.7,24.86,138.10000000000582,-36.60000000000582
2488.0,24880.0,85759.0,75311.0,85601.5,75349.3,166.1,-40.0,24.88,157.5,-38.30000000000291
2490.0,24900.0,85790.0,75319.0,85603.2,75349.0,155.5,-41.3,24.9,186.8000000000029,-30.0
2492.0,24920.0,85818.0,75331.0,85605.3,75348.8,159.0,-38.3,24.92,212.6999999999971,-17.80000000000291
2494.0,24940.0,85869.0,75365.0,85607.8,75348.9,175.3,-30.1,24.94,261.1999999999971,16.10000000000582
2496.0,24960.0,85893.0,75369.0,85610.5,75349.0,201.4,-16.6,24.96,282.5,20.0
2498.0,24980.0,85911.0,75382.0,85613.4,75349.3,231.4,-1.7,24.98,297.6000000000058,32.69999999999709
2500.0,25000.0,85943.0,75389.0,85616.5,75349.7,260.9,13.5,25.0,326.5,39.30000000000291
2502.0,25020.0,85969.0,75409.0,85620.0,75350.3,290.0,28.8,25.02,349.0,58.69999999999709
2504.0,25040.0,85989.0,75408.0,85623.6,75351.0,317.4,43.7,25.04,365.3999999999942,57.0
2506.0,25060.0,85994.0,75425.0,85627.4,75351.7,340.8,55.1,25.06,366.6000000000058,73.30000000000291
2508.0,25080.0,86018.0,75442.0,85631.2,75352.5,358.1,64.9,25.08,386.8000000000029,89.5
2510.0,25100.0,86034.0,75442.0,85635.2,75353.4,372.6,74.7,25.1,398.8000000000029,88.60000000000582
2512.0,25120.0,86037.0,75457.0,85639.2,75354.4,385.4,81.9,25.12,397.8000000000029,102.60000000000582
2514.0,25140.0,86061.0,75456.0,85643.4,75355.3,395.7,88.0,25.14,417.6000000000058,100.69999999999709
2516.0,25160.0,86075.0,75448.0,85647.7,75356.2,405.6,92.3,25.16,427.3000000000029,91.80000000000291
2518.0,25180.0,86008.0,75425.0,85651.5,75357.0,412.3,93.0,25.18,356.5,68.0
2520.0,25200.0,85891.0,75364.0,85654.2,75357.5,398.0,87.7,25.2,236.8000000000029,6.5
2522.0,25220.0,85685.0,75288.0,85655.0,75357.0,343.7,65.9,25.22,30.0,-69.0
2524.0,25240.0,85468.0,75202.0,85653.6,75355.6,236.3,20.8,25.24,-185.60000000000582,-153.60000000000582
2526.0,25260.0,85296.0,75161.0,85650.4,75353.7,81.2,-43.2,25.26,-354.3999999999942,-192.6999999999971
2528.0,25280.0,85219.0,75119.0,85646.3,75351.4,-92.2,-110.9,25.28,-427.3000000000029,-232.39999999999418
2530.0,25300.0,85206.0,75119.0,85642.0,75349.0,-246.8,-170.2,25.3,-436.0,-230.0
2532.0,25320.0,85248.0,75124.0,85638.0,75346.8,-356.0,-209.8,25.32,-390.0,-222.8000000000029
2534.0,25340.0,85304.0,75162.0,85634.4,75345.0,-409.8,-225.1,25.34,-330.3999999999942,-183.0
2536.0,25360.0,85323.0,75167.0,85631.1,75343.2,-415.5,-220.1,25.36,-308.1000000000058,-176.1999999999971
2538.0,25380.0,85351.0,75203.0,85628.2,75341.8,-391.4,-203.5,25.38,-277.1999999999971,-138.8000000000029
2540.0,25400.0,85385.0,75233.0,85625.7,75340.6,-352.0,-179.2,25.4,-240.6999999999971,-107.60000000000582
2542.0,25420.0,85436.0,75244.0,85623.8,75339.6,-303.1,-152.5,25.42,-187.8000000000029,-95.60000000000582
2544.0,25440.0,85445.0,75250.0,85622.1,75338.6,-251.4,-128.5,25.44,-177.10000000000582,-88.60000000000582
2546.0,25460.0,85485.0,75249.0,85620.8,75337.7,-206.7,-109.1,25.46,-135.8000000000029,-88.69999999999709
2548.0,25480.0,85495.0,75250.0,85619.4,75336.9,-171.7,-94.5,25.48,-124.39999999999418,-86.89999999999418
2550.0,25500.0,85460.0,75240.0,85617.8,75336.0,-149.8,-86.6,25.5,-157.8000000000029,-96.0
2552.0,25520.0,85437.0,75228.0,85616.0,75335.0,-144.9,-85.2,25.52,-179.0,-107.0
2554.0,25540.0,85415.0,75226.0,85614.0,75333.9,-152.4,-88.6,25.54,-199.0,-107.89999999999418
2556.0,25560.0,85419.0,75225.0,85612.2,75332.8,-164.3,-95.3,25.56,-193.1999999999971,-107.80000000000291
2558.0,25580.0,85438.0,75229.0,85610.5,75331.8,-173.8,-101.6,25.58,-172.5,-102.80000000000291
2560.0,25600.0,85474.0,75247.0,85609.0,75330.9,-175.9,-103.5,25.6,-135.0,-83.89999999999418
2562.0,25620.0,85513.0,75252.0,85607.9,75330.1,-166.8,-99.3,25.62,-94.89999999999418,-78.10000000000582
2564.0,25640.0,85538.0,75277.0,85607.1,75329.5,-145.7,-90.5,25.64,-69.10000000000582,-52.5
2566.0,25660.0,85570.0,75284.0,85606.6,75329.0,-117.6,-77.8,25.66,-36.60000000000582,-45.0
2568.0,25680.0,85607.0,75311.0,85606.5,75328.8,-84.4,-62.9,25.68,0.5,-17.80000000000291
2570.0,25700.0,85642.0,75326.0,85606.9,75328.7,-47.3,-45.3,25.7,35.10000000000582,-2.6999999999970896
2572.0,25720.0,85669.0,75327.0,85607.4,75328.8,-10.8,-26.6,25.72,61.60000000000582,-1.8000000000029104
2574.0,25740.0,85698.0,75338.0,85608.2,75328.9,23.0,-10.4,25.74,89.80000000000291,9.10000000000582
2576.0,25760.0,85722.0,75338.0,85609.3,75329.0,54.7,1.4,25.76,112.69999999999709,9.0
2578.0,25780.0,85739.0,75358.0,85610.5,75329.2,82.3,8.4,25.78,128.5,28.80000000000291
2580.0,25800.0,85764.0,75349.0,85612.0,75329.3,105.7,13.6,25.8,152.0,19.69999999999709
2582.0,25820.0,85779.0,75348.0,85613.6,75329.6,126.7,18.1,25.82,165.39999999999418,18.39999999999418
2584.0,25840.0,85789.0,75367.0,85615.4,75329.9,145.2,22.1,25.84,173.60000000000582,37.10000000000582
2586.0,25860.0,85820.0,75379.0,85617.3,75330.4,161.7,27.9,25.86,202.6999999999971,48.60000000000582
2588.0,25880.0,85826.0,75378.0,85619.4,75330.9,178.5,35.0,25.88,206.60000000000582,47.10000000000582
2590.0,25900.0,85782.0,75349.0,85621.2,75331.1,191.1,39.6,25.9,160.8000000000029,17.89999999999418
2592.0,25920.0,85638.0,75304.0,85621.7,75331.0,183.1,35.5,25.92,16.30000000000291,-27.0
2594.0,25940.0,85454.0,75205.0,85620.6,75330.1,133.7,15.1,25.94,-166.60000000000582,-125.10000000000582
2596.0,25960.0,85216.0,75112.0,85617.1,75328.1,30.3,-29.6,25.96,-401.1000000000058,-216.10000000000582
2598.0,25980.0,85046.0,75044.0,85611.7,75325.5,-124.4,-95.8,25.98,-565.6999999999971,-281.5
2600.0,26000.0,84988.0,75034.0,85605.7,75322.6,-298.1,-168.5,26.0,-617.6999999999971,-288.6000000000058
2602.0,26020.0,85005.0,75038.0,85599.7,75319.8,-447.4,-228.1,26.02,-594.6999999999971,-281.8000000000029
2604.0,26040.0,85050.0,75080.0,85594.1,75317.3,-544.4,-264.1,26.04,-544.1000000000058,-237.3000000000029
2606.0,26060.0,85108.0,75110.0,85589.1,75315.1,-583.4,-273.0,26.06,-481.1000000000058,-205.10000000000582
2608.0,26080.0,85166.0,75128.0,85584.7,75313.1,-572.7,-260.3,26.08,-418.6999999999971,-185.10000000000582
2610.0,26100.0,85193.0,75149.0,85580.7,75311.5,-530.3,-234.9,26.1,-387.6999999999971,-162.5
2612.0,26120.0,85241.0,75176.0,85577.1,75310.1,-475.6,-204.1,26.12,-336.1000000000058,-134.10000000000582
2614.0,26140.0,85297.0,75196.0,85574.2,75308.9,-416.4,-172.7,26.14,-277.1999999999971,-112.89999999999418
2616.0,26160.0,85331.0,75219.0,85571.8,75308.0,-355.7,-143.2,26.16,-240.8000000000029,-89.0
2618.0,26180.0,85353.0,75255.0,85569.6,75307.3,-299.8,-116.8,26.18,-216.60000000000582,-52.30000000000291
2620.0,26200.0,85362.0,75235.0,85567.5,75306.6,-254.5,-93.9,26.2,-205.5,-71.60000000000582
2622.0,26220.0,85364.0,75243.0,85565.4,75305.9,-223.6,-79.0,26.22,-201.39999999999418,-62.89999999999418
2624.0,26240.0,85342.0,75225.0,85563.2,75305.1,-207.7,-71.0,26.24,-221.1999999999971,-80.10000000000582
2626.0,26260.0,85357.0,75225.0,85561.1,75304.4,-204.1,-67.2,26.26,-204.10000000000582,-79.39999999999418
2628.0,26280.0,85353.0,75228.0,85558.9,75303.7,-205.1,-66.1,26.28,-205.89999999999418,-75.69999999999709
2630.0,26300.0,85378.0,75266.0,85557.0,75303.3,-205.9,-65.0,26.3,-179.0,-37.30000000000291
2632.0,26320.0,85408.0,75306.0,85555.4,75303.1,-199.6,-58.5,26.32,-147.39999999999418,2.8999999999941792
2634.0,26340.0,85446.0,75295.0,85554.4,75302.9,-181.4,-45.7,26.34,-108.39999999999418,-7.899999999994179
2636.0,26360.0,85493.0,75309.0,85553.7,75302.8,-152.4,-32.7,26.36,-60.69999999999709,6.19999999999709
2638.0,26380.0,85539.0,75306.0,85553.4,75302.8,-116.1,-19.4,26.38,-14.39999999999418,3.1999999999970896
2640.0,26400.0,85596.0,75312.0,85553.5,75303.1,-75.9,-5.4,26.4,42.5,8.89999999999418
2642.0,26420.0,85603.0,75316.0,85553.9,75303.2,-33.7,5.9,26.42,49.10000000000582,12.80000000000291
2644.0,26440.0,85642.0,75328.0,85554.6,75303.4,5.0,13.0,26.44,87.39999999999418,24.60000000000582
2646.0,26460.0,85663.0,75353.0,85555.7,75303.8,41.2,19.0,26.46,107.30000000000291,49.19999999999709
2648.0,26480.0,85695.0,75342.0,85557.1,75304.2,75.7,26.9,26.48,137.89999999999418,37.80000000000291
2650.0,26500.0,85699.0,75348.0,85558.5,75304.5,106.2,32.7,26.5,140.5,43.5
2652.0,26520.0,85732.0,75353.0,85560.2,75305.0,129.7,37.3,26.52,171.8000000000029,48.0
2654.0,26540.0,85764.0,75367.0,85562.1,75305.6,149.4,43.2,26.54,201.89999999999418,61.39999999999418
2656.0,26560.0,85763.0,75387.0,85564.1,75306.5,168.3,51.9,26.56,198.89999999999418,80.5
2658.0,26580.0,85805.0,75417.0,85566.3,75307.5,186.1,64.7,26.58,238.6999999999971,109.5
2660.0,26600.0,85816.0,75431.0,85568.9,75308.7,206.1,80.8,26.6,247.10000000000582,122.30000000000291
2662.0,26620.0,85843.0,75436.0,85571.7,75309.9,228.8,96.7,26.62,271.3000000000029,126.10000000000582
2664.0,26640.0,85408.0,75306.0,85572.3,75310.6,242.3,108.2,26.64,-164.3000000000029,-4.600000000005821
2666.0,26660.0,85789.0,75398.0,85574.7,75311.5,213.2,103.5,26.66,214.3000000000029,86.5
2668.0,26680.0,85627.0,75305.0,85575.6,75311.8,190.4,92.7,26.68,51.39999999999418,-6.80000000000291
2670.0,26700.0,85398.0,75219.0,85574.5,75311.1,139.5,62.8,26.7,-176.5,-92.10000000000582
2672.0,26720.0,85188.0,75125.0,85571.0,75309.5,33.9,9.9,26.72,-383.0,-184.5
2674.0,26740.0,85049.0,75078.0,85566.1,75307.3,-118.4,-60.7,26.74,-517.1000000000058,-229.3000000000029
2676.0,26760.0,85025.0,75071.0,85560.7,75304.9,-280.4,-132.1,26.76,-535.6999999999971,-233.89999999999418
2678.0,26780.0,85058.0,75102.0,85555.6,75302.8,-410.2,-185.5,26.78,-497.6000000000058,-200.8000000000029
2680.0,26800.0,85103.0,75123.0,85551.0,75301.0,-485.0,-211.4,26.8,-448.0,-178.0
2682.0,26820.0,85146.0,75134.0,85546.9,75299.3,-505.2,-213.7,26.82,-400.8999999999942,-165.3000000000029
2684.0,26840.0,85197.0,75163.0,85543.2,75297.9,-485.4,-200.6,26.84,-346.1999999999971,-134.89999999999418
2686.0,26860.0,85244.0,75173.0,85540.1,75296.6,-440.9,-178.7,26.86,-296.1000000000058,-123.60000000000582
2688.0,26880.0,85291.0,75194.0,85537.5,75295.6,-385.2,-154.0,26.88,-246.5,-101.60000000000582
2690.0,26900.0,85329.0,75208.0,85535.3,75294.7,-326.5,-130.2,26.9,-206.3000000000029,-86.69999999999709
2692.0,26920.0,85370.0,75227.0,85533.6,75294.0,-270.2,-108.4,26.92,-163.60000000000582,-67.0
2694.0,26940.0,85370.0,75213.0,85532.0,75293.2,-221.0,-90.4,26.94,-162.0,-80.19999999999709
2696.0,26960.0,85366.0,75198.0,85530.3,75292.3,-185.8,-80.5,26.96,-164.3000000000029,-94.30000000000291
2698.0,26980.0,85351.0,75203.0,85528.6,75291.4,-166.6,-78.8,26.98,-177.60000000000582,-88.39999999999418
2700.0,27000.0,85328.0,75179.0,85526.7,75290.4,-160.9,-81.5,27.0,-198.6999999999971,-111.39999999999418
2702.0,27020.0,85333.0,75179.0,85524.7,75289.3,-166.7,-88.3,27.02,-191.6999999999971,-110.30000000000291
2704.0,27040.0,85328.0,75201.0,85522.7,75288.3,-177.1,-95.5,27.04,-194.6999999999971,-87.30000000000291
2706.0,27060.0,85364.0,75216.0,85521.0,75287.5,-185.0,-97.8,27.06,-157.0,-71.5
2708.0,27080.0,85385.0,75224.0,85519.6,75286.8,-181.6,-93.2,27.08,-134.60000000000582,-62.80000000000291
2710.0,27100.0,85428.0,75249.0,85518.6,75286.4,-166.1,-83.0,27.1,-90.60000000000582,-37.39999999999418
2712.0,27120.0,85467.0,75275.0,85518.0,75286.2,-140.0,-67.1,27.12,-51.0,-11.19999999999709
2714.0,27140.0,85523.0,75294.0,85517.9,75286.2,-104.3,-45.9,27.14,5.100000000005821,7.80000000000291
2716.0,27160.0,85543.0,75309.0,85518.1,75286.4,-62.2,-23.0,27.16,24.89999999999418,22.60000000000582
2718.0,27180.0,85578.0,75317.0,85518.7,75286.7,-20.4,-1.6,27.18,59.30000000000291,30.30000000000291
2720.0,27200.0,85621.0,75339.0,85519.6,75287.2,18.6,16.4,27.2,101.39999999999418,51.80000000000291
2722.0,27220.0,85642.0,75338.0,85520.7,75287.7,54.6,32.0,27.22,121.30000000000291,50.30000000000291
2724.0,27240.0,85657.0,75372.0,85522.0,75288.4,86.0,44.6,27.24,135.0,83.60000000000582
2726.0,27260.0,85683.0,75350.0,85523.6,75289.1,113.1,56.3,27.26,159.39999999999418,60.89999999999418
2728.0,27280.0,85718.0,75367.0,85525.5,75289.8,138.3,64.2,27.28,192.5,77.19999999999709
2730.0,27300.0,85729.0,75374.0,85527.5,75290.7,161.8,71.1,27.3,201.5,83.30000000000291
2732.0,27320.0,85763.0,75379.0,85529.8,75291.7,182.8,79.2,27.32,233.1999999999971,87.30000000000291
2734.0,27340.0,85763.0,75364.0,85532.0,75292.5,202.1,85.4,27.34,231.0,71.5
2736.0,27360.0,85778.0,75375.0,85534.5,75293.3,217.4,86.0,27.36,243.5,81.69999999999709
2738.0,27380.0,85786.0,75391.0,85537.0,75294.1,230.7,84.2,27.38,249.0,96.89999999999418
2740.0,27400.0,85819.0,75400.0,85539.9,75295.1,244.7,85.3,27.4,279.1000000000058,104.89999999999418
2742.0,27420.0,85850.0,75414.0,85542.9,75296.2,261.9,90.5,27.42,307.1000000000058,117.80000000000291
2744.0,27440.0,85881.0,75427.0,85546.4,75297.5,283.7,99.6,27.44,334.6000000000058,129.5
2746.0,27460.0,85941.0,75444.0,85550.1,75299.1,309.0,114.2,27.46,390.8999999999942,144.89999999999418
2748.0,27480.0,85886.0,75415.0,85553.6,75300.4,334.4,128.8,27.48,332.3999999999942,114.60000000000582
2750.0,27500.0,85738.0,75350.0,85555.8,75301.1,337.6,130.5,27.5,182.1999999999971,48.89999999999418
2752.0,27520.0,85490.0,75269.0,85555.7,75300.9,290.6,107.8,27.52,-65.69999999999709,-31.89999999999418
2754.0,27540.0,85238.0,75145.0,85553.3,75299.6,177.9,57.6,27.54,-315.3000000000029,-154.60000000000582
2756.0,27560.0,85064.0,75079.0,85548.9,75297.6,7.1,-16.8,27.56,-484.8999999999942,-218.60000000000582
2758.0,27580.0,85030.0,75055.0,85543.7,75295.2,-184.8,-97.9,27.58,-513.6999999999971,-240.1999999999971
2760.0,27600.0,85073.0,75070.0,85538.8,75293.0,-346.7,-164.9,27.6,-465.8000000000029,-223.0
2762.0,27620.0,85125.0,75097.0,85534.5,75291.0,-445.3,-205.7,27.62,-409.5,-194.0
2764.0,27640.0,85205.0,75145.0,85530.9,75289.5,-476.5,-217.2,27.64,-325.8999999999942,-144.5
2766.0,27660.0,85265.0,75185.0,85528.1,75288.3,-451.6,-203.7,27.66,-263.1000000000058,-103.30000000000291
2768.0,27680.0,85342.0,75206.0,85526.2,75287.3,-389.1,-174.9,27.68,-184.1999999999971,-81.30000000000291
2770.0,27700.0,85377.0,75222.0,85524.7,75286.6,-309.1,-140.5,27.7,-147.6999999999971,-64.60000000000582
2772.0,27720.0,85466.0,75243.0,85524.0,75286.1,-229.0,-106.6,27.72,-58.0,-43.10000000000582
2774.0,27740.0,85525.0,75263.0,85523.8,75285.8,-152.8,-75.9,27.74,1.1999999999970896,-22.80000000000291
2776.0,27760.0,85511.0,75246.0,85523.6,75285.5,-87.1,-50.9,27.76,-12.60000000000582,-39.5
2778.0,27780.0,85507.0,75246.0,85523.4,75285.1,-42.0,-36.8,27.78,-16.39999999999418,-39.10000000000582
2780.0,27800.0,85479.0,75230.0,85523.0,75284.5,-18.8,-33.4,27.8,-44.0,-54.5
2782.0,27820.0,85454.0,75207.0,85522.5,75283.8,-15.1,-39.0,27.82,-68.5,-76.80000000000291
2784.0,27840.0,85456.0,75211.0,85521.8,75283.1,-25.3,-49.8,27.84,-65.80000000000291,-72.10000000000582
2786.0,27860.0,85479.0,75217.0,85521.3,75282.4,-39.5,-59.6,27.86,-42.30000000000291,-65.39999999999418
2788.0,27880.0,85518.0,75222.0,85521.1,75281.8,-46.1,-65.1,27.88,-3.1000000000058208,-59.80000000000291
2790.0,27900.0,85556.0,75261.0,85521.3,75281.5,-38.1,-63.3,27.9,34.69999999999709,-20.5
2792.0,27920.0,85616.0,75278.0,85522.1,75281.4,-15.3,-52.0,27.92,93.89999999999418,-3.3999999999941792
2794.0,27940.0,85659.0,75295.0,85523.3,75281.5,21.6,-35.3,27.94,135.6999999999971,13.5
2796.0,27960.0,85722.0,75320.0,85525.2,75281.8,68.2,-15.6,27.96,196.8000000000029,38.19999999999709
2798.0,27980.0,85778.0,75343.0,85527.6,75282.4,121.5,7.6,27.98,250.39999999999418,60.60000000000582
2800.0,28000.0,85824.0,75354.0,85530.4,75283.1,176.7,30.8,28.0,293.6000000000058,70.89999999999418
2802.0,28020.0,85863.0,75361.0,85533.7,75283.9,229.7,50.9,28.02,329.3000000000029,77.10000000000582
2804.0,28040.0,85893.0,75390.0,85537.1,75284.8,277.0,66.8,28.04,355.8999999999942,105.19999999999709
2806.0,28060.0,85927.0,75389.0,85541.0,75285.8,318.2,80.8,28.06,386.0,103.19999999999709
2808.0,28080.0,85955.0,75384.0,85545.1,75286.8,353.8,91.7,28.08,409.8999999999942,97.19999999999709
2810.0,28100.0,85974.0,75391.0,85549.4,75287.8,383.6,98.0,28.1,424.6000000000058,103.19999999999709
2812.0,28120.0,86008.0,75403.0,85553.9,75289.0,408.1,103.3,28.12,454.1000000000058,114.0
2814.0,28140.0,86021.0,75404.0,85558.5,75290.2,429.4,109.2,28.14,462.5,113.80000000000291
2816.0,28160.0,86040.0,75403.0,85563.2,75291.3,446.8,113.1,28.16,476.8000000000029,111.69999999999709
2818.0,28180.0,86046.0,75434.0,85568.0,75292.6,459.8,115.4,28.18,478.0,141.39999999999418
2820.0,28200.0,86076.0,75415.0,85572.9,75293.9,470.2,119.9,28.2,503.1000000000058,121.10000000000582
2822.0,28220.0,86081.0,75428.0,85577.9,75295.2,480.8,123.5,28.22,503.1000000000058,132.8000000000029
2824.0,28240.0,86109.0,75436.0,85583.2,75296.6,491.9,127.5,28.24,525.8000000000029,139.39999999999418
2826.0,28260.0,86153.0,75476.0,85588.8,75298.3,507.8,135.1,28.26,564.1999999999971,177.6999999999971
2828.0,28280.0,86192.0,75467.0,85594.8,75300.1,530.7,147.8,28.28,597.1999999999971,166.89999999999418
2830.0,28300.0,86246.0,75491.0,85601.2,75301.9,559.2,159.9,28.3,644.8000000000029,189.10000000000582
2832.0,28320.0,86252.0,75507.0,85607.7,75303.9,591.2,172.0,28.32,644.3000000000029,203.10000000000582
2834.0,28340.0,86144.0,75430.0,85613.4,75305.4,614.2,180.7,28.34,530.6000000000058,124.60000000000582
2836.0,28360.0,85877.0,75320.0,85616.7,75305.8,593.0,167.7,28.36,260.3000000000029,14.19999999999709
2838.0,28380.0,85627.0,75218.0,85617.4,75305.2,495.6,121.8,28.38,9.60000000000582,-87.19999999999709
2840.0,28400.0,85433.0,75134.0,85616.0,75303.7,329.8,48.6,28.4,-183.0,-169.6999999999971
2842.0,28420.0,85323.0,75082.0,85613.4,75301.6,131.1,-37.7,28.42,-290.3999999999942,-219.60000000000582
2844.0,28440.0,85314.0,75095.0,85610.4,75299.4,-55.8,-118.3,28.44,-296.3999999999942,-204.39999999999418
2846.0,28460.0,85370.0,75119.0,85607.8,75297.5,-192.7,-174.4,28.46,-237.8000000000029,-178.5
2848.0,28480.0,85462.0,75171.0,85606.0,75296.1,-259.3,-198.2,28.48,-144.0,-125.10000000000582
2850.0,28500.0,85544.0,75206.0,85607.8,75296.2,-219.6,-174.4,28.5,-63.80000000000291,-90.19999999999709
2852.0,28520.0,85622.0,75244.0,85607.8,75295.7,-131.8,-128.2,28.52,14.19999999999709,-51.69999999999709
2854.0,28540.0,85699.0,75275.0,85608.5,75295.4,-56.8,-87.3,28.54,90.5,-20.39999999999418
2856.0,28560.0,85770.0,75308.0,85609.9,75295.5,12.7,-51.7,28.56,160.10000000000582,12.5
2858.0,28580.0,85813.0,75345.0,85611.8,75295.8,78.5,-20.6,28.58,201.1999999999971,49.19999999999709
2860.0,28600.0,85821.0,75323.0,85614.0,75296.1,136.5,5.4,28.6,207.0,26.89999999999418
2862.0,28620.0,85813.0,75320.0,85616.0,75296.3,178.4,20.7,28.62,197.0,23.69999999999709
2864.0,28640.0,85777.0,75281.0,85617.6,75296.2,198.4,25.2,28.64,159.39999999999418,-15.19999999999709
2866.0,28660.0,85750.0,75269.0,85618.9,75296.1,194.8,19.7,28.66,131.10000000000582,-27.10000000000582
2868.0,28680.0,85694.0,75235.0,85619.8,75295.6,172.9,6.0,28.68,74.19999999999709,-60.60000000000582
2870.0,28700.0,85693.0,75238.0,85620.5,75295.1,140.6,-14.7,28.7,72.5,-57.10000000000582
2872.0,28720.0,85704.0,75273.0,85621.3,75294.6,110.9,-34.1,28.72,82.69999999999709,-21.60000000000582
2874.0,28740.0,85736.0,75266.0,85622.5,75294.2,93.8,-44.0,28.74,113.5,-28.19999999999709
2876.0,28760.0,85772.0,75283.0,85623.9,75294.0,93.7,-45.5,28.76,148.10000000000582,-11.0
2878.0,28780.0,85819.0,75284.0,85625.8,75293.9,109.5,-38.4,28.78,193.1999999999971,-9.89999999999418
2880.0,28800.0,85895.0,75313.0,85628.2,75294.2,138.8,-23.4,28.8,266.8000000000029,18.80000000000291
2882.0,28820.0,85926.0,75315.0,85631.0,75294.5,181.0,-3.8,28.82,295.0,20.5
2884.0,28840.0,85964.0,75349.0,85634.2,75295.0,227.0,14.3,28.84,329.8000000000029,54.0
2886.0,28860.0,86000.0,75380.0,85637.8,75295.7,272.2,31.6,28.86,362.1999999999971,84.30000000000291
2888.0,28880.0,86028.0,75366.0,85641.8,75296.4,317.1,48.0,28.88,386.1999999999971,69.60000000000582
2890.0,28900.0,86049.0,75371.0,85645.8,75297.1,356.0,60.3,28.9,403.1999999999971,73.89999999999418
2892.0,28920.0,86086.0,75375.0,85650.2,75297.9,386.3,69.2,28.92,435.8000000000029,77.10000000000582
2894.0,28940.0,86120.0,75384.0,85654.7,75298.8,411.0,76.9,28.94,465.3000000000029,85.19999999999709
2896.0,28960.0,86109.0,75374.0,85659.2,75299.6,431.3,82.8,28.96,449.8000000000029,74.39999999999418
2898.0,28980.0,86114.0,75390.0,85663.6,75300.6,443.8,85.7,28.98,450.3999999999942,89.39999999999418
2900.0,29000.0,86111.0,75402.0,85668.2,75301.5,450.3,88.0,29.0,442.8000000000029,100.5
2902.0,29020.0,86115.0,75403.0,85672.8,75302.4,453.9,89.8,29.02,442.1999999999971,100.60000000000582
2904.0,29040.0,86110.0,75398.0,85677.2,75303.3,453.9,90.6,29.04,432.8000000000029,94.69999999999709
2906.0,29060.0,86144.0,75393.0,85681.8,75304.2,451.6,91.3,29.06,462.1999999999971,88.80000000000291
2908.0,29080.0,86156.0,75407.0,85686.4,75305.3,451.8,92.7,29.08,469.6000000000058,101.69999999999709
2910.0,29100.0,86178.0,75405.0,85691.2,75306.3,455.6,95.3,29.1,486.8000000000029,98.69999999999709
2912.0,29120.0,86200.0,75427.0,85696.1,75307.4,463.6,98.0,29.12,503.8999999999942,119.60000000000582
2914.0,29140.0,86203.0,75434.0,85701.2,75308.6,475.7,103.2,29.14,501.8000000000029,125.39999999999418
2916.0,29160.0,86173.0,75403.0,85706.1,75309.6,488.2,109.1,29.16,466.8999999999942,93.39999999999418
2918.0,29180.0,85975.0,75320.0,85709.4,75309.9,481.4,104.2,29.18,265.6000000000058,10.10000000000582
2920.0,29200.0,85741.0,75215.0,85710.3,75309.2,419.7,75.3,29.2,30.69999999999709,-94.19999999999709
2922.0,29220.0,85497.0,75112.0,85708.7,75307.5,289.3,18.4,29.22,-211.6999999999971,-195.5
2924.0,29240.0,85292.0,75040.0,85705.0,75305.0,103.2,-60.0,29.24,-413.0,-265.0
2926.0,29260.0,85216.0,75008.0,85700.2,75302.1,-104.5,-143.8,29.26,-484.1999999999971,-294.1000000000058
2928.0,29280.0,85223.0,75018.0,85695.3,75299.3,-286.4,-214.6,29.28,-472.3000000000029,-281.3000000000029
2930.0,29300.0,85274.0,75063.0,85691.0,75296.8,-407.8,-259.6,29.3,-417.0,-233.8000000000029
2932.0,29320.0,85352.0,75093.0,85687.4,75294.6,-458.3,-273.2,29.32,-335.3999999999942,-201.60000000000582
2934.0,29340.0,85419.0,75123.0,85684.5,75292.8,-447.2,-260.8,29.34,-265.5,-169.8000000000029
2936.0,29360.0,85484.0,75137.0,85682.3,75291.2,-395.3,-233.0,29.36,-198.3000000000029,-154.1999999999971
2938.0,29380.0,85542.0,75176.0,85680.8,75290.0,-323.1,-199.7,29.38,-138.8000000000029,-114.0
2940.0,29400.0,85595.0,75194.0,85679.8,75289.0,-245.3,-164.1,29.4,-84.80000000000291,-95.0
2942.0,29420.0,85634.0,75202.0,85679.3,75288.2,-171.6,-131.1,29.42,-45.30000000000291,-86.19999999999709
2944.0,29440.0,85651.0,75195.0,85679.0,75287.2,-108.6,-106.2,29.44,-28.0,-92.19999999999709
2946.0,29460.0,85642.0,75209.0,85678.7,75286.5,-62.7,-90.4,29.46,-36.69999999999709,-77.5
2948.0,29480.0,85593.0,75172.0,85678.0,75285.4,-38.9,-83.2,29.48,-85.0,-113.39999999999418
2950.0,29500.0,85574.0,75162.0,85677.0,75284.2,-39.5,-87.3,29.5,-103.0,-122.19999999999709
2952.0,29520.0,85548.0,75155.0,85675.8,75283.0,-56.7,-97.2,29.52,-127.80000000000291,-128.0
2954.0,29540.0,85532.0,75144.0,85674.4,75281.7,-81.2,-108.3,29.54,-142.39999999999418,-137.6999999999971
2956.0,29560.0,85542.0,75151.0,85673.1,75280.3,-105.2,-119.2,29.56,-131.10000000000582,-129.3000000000029
2958.0,29580.0,85567.0,75164.0,85671.9,75279.1,-120.9,-127.0,29.58,-104.89999999999418,-115.10000000000582
2960.0,29600.0,85630.0,75204.0,85671.3,75278.2,-121.5,-125.5,29.6,-41.30000000000291,-74.19999999999709
2962.0,29620.0,85657.0,75209.0,85671.0,75277.5,-103.9,-113.4,29.62,-14.0,-68.5
2964.0,29640.0,85709.0,75213.0,85671.2,75276.9,-73.0,-96.8,29.64,37.80000000000291,-63.89999999999418
2966.0,29660.0,85735.0,75249.0,85671.8,75276.5,-32.4,-79.6,29.66,63.19999999999709,-27.5
2968.0,29680.0,85795.0,75249.0,85673.0,75276.3,12.0,-59.8,29.68,122.0,-27.30000000000291
2970.0,29700.0,85818.0,75269.0,85674.4,75276.2,59.3,-40.6,29.7,143.60000000000582,-7.19999999999709
2972.0,29720.0,85859.0,75272.0,85676.2,75276.2,103.4,-23.3,29.72,182.8000000000029,-4.19999999999709
2974.0,29740.0,85911.0,75315.0,85678.4,75276.5,143.1,-8.1,29.74,232.60000000000582,38.5
2976.0,29760.0,85912.0,75311.0,85680.7,75276.8,179.8,7.9,29.76,231.3000000000029,34.19999999999709
2978.0,29780.0,85933.0,75309.0,85683.2,75277.1,209.1,19.9,29.78,249.8000000000029,31.89999999999418
2980.0,29800.0,85942.0,75321.0,85685.8,75277.5,231.3,27.4,29.8,256.1999999999971,43.5
2982.0,29820.0,85969.0,75314.0,85688.6,75277.9,249.4,34.3,29.82,280.3999999999942,36.10000000000582
2984.0,29840.0,85981.0,75314.0,85691.5,75278.3,265.3,39.0,29.84,289.5,35.69999999999709
2986.0,29860.0,85979.0,75316.0,85694.4,75278.7,278.3,40.5,29.86,284.6000000000058,37.30000000000291
2988.0,29880.0,86019.0,75325.0,85697.5,75279.1,287.5,40.1,29.88,321.5,45.89999999999418
2990.0,29900.0,86020.0,75322.0,85700.7,75279.5,297.4,39.8,29.9,319.3000000000029,42.5
2992.0,29920.0,86049.0,75342.0,85704.1,75280.0,308.4,40.6,29.92,344.8999999999942,62.0
2994.0,29940.0,86070.0,75343.0,85707.7,75280.6,321.9,44.5,29.94,362.3000000000029,62.39999999999418
2996.0,29960.0,86107.0,75360.0,85711.6,75281.3,339.6,51.0,29.96,395.3999999999942,78.69999999999709
2998.0,29980.0,86123.0,75365.0,85715.7,75282.2,361.7,60.5,29.98,407.3000000000029,82.80000000000291
3000.0,30000.0,86099.0,75355.0,85719.7,75283.0,382.2,70.9,30.0,379.3000000000029,72.0
3002.0,30020.0,85939.0,75278.0,85722.3,75283.2,383.4,72.9,30.02,216.6999999999971,-5.19999999999709
3004.0,30040.0,85672.0,75165.0,85722.6,75282.3,333.9,51.1,30.04,-50.60000000000582,-117.30000000000291
3006.0,30060.0,85408.0,75072.0,85720.1,75280.4,212.3,-1.8,30.06,-312.1000000000058,-208.39999999999418
3008.0,30080.0,85192.0,74980.0,85715.3,75277.6,25.6,-79.0,30.08,-523.3000000000029,-297.6000000000058
3010.0,30100.0,85105.0,74939.0,85709.3,75274.3,-190.5,-166.6,30.1,-604.3000000000029,-335.3000000000029
3012.0,30120.0,85075.0,74946.0,85703.0,75270.9,-386.0,-245.0,30.12,-628.0,-324.8999999999942
3014.0,30140.0,85152.0,74964.0,85697.3,75267.9,-524.1,-296.8,30.14,-545.3000000000029,-303.8999999999942
3016.0,30160.0,85231.0,75000.0,85692.4,75265.2,-586.0,-317.4,30.16,-461.3999999999942,-265.1999999999971
3018.0,30180.0,85313.0,75038.0,85688.4,75262.8,-578.5,-311.1,30.18,-375.3999999999942,-224.8000000000029
3020.0,30200.0,85379.0,75080.0,85685.2,75260.8,-522.9,-287.0,30.2,-306.1999999999971,-180.8000000000029
3022.0,30220.0,85427.0,75085.0,85682.5,75259.0,-443.6,-252.5,30.22,-255.5,-174.0
3024.0,30240.0,85505.0,75114.0,85680.6,75257.5,-359.0,-217.1,30.24,-175.60000000000582,-143.5
3026.0,30260.0,85555.0,75123.0,85679.2,75256.1,-277.5,-184.3,30.26,-124.19999999999709,-133.10000000000582
3028.0,30280.0,85582.0,75141.0,85678.1,75255.0,-205.6,-155.0,30.28,-96.10000000000582,-114.0
3030.0,30300.0,85566.0,75127.0,85677.0,75253.8,-150.5,-132.4,30.3,-111.0,-126.80000000000291
3032.0,30320.0,85540.0,75121.0,85675.8,75252.5,-118.3,-120.8,30.32,-135.8000000000029,-131.5
3034.0,30340.0,85939.0,75278.0,85676.4,75252.0,-100.6,-115.5,30.34,262.6000000000058,26.0
3036.0,30360.0,85485.0,75097.0,85674.6,75250.4,-67.4,-104.3,30.36,-189.60000000000582,-153.39999999999418
3038.0,30380.0,85475.0,75097.0,85672.7,75248.9,-77.8,-110.1,30.38,-197.6999999999971,-151.89999999999418
3040.0,30400.0,85480.0,75099.0,85670.8,75247.4,-111.7,-123.3,30.4,-190.8000000000029,-148.39999999999418
3042.0,30420.0,85531.0,75126.0,85669.2,75246.2,-143.5,-131.9,30.42,-138.1999999999971,-120.19999999999709
3044.0,30440.0,85551.0,75138.0,85667.9,75245.1,-157.9,-131.9,30.44,-116.89999999999418,-107.10000000000582
3046.0,30460.0,85608.0,75178.0,85667.0,75244.3,-153.3,-124.0,30.46,-59.0,-66.30000000000291
3048.0,30480.0,85654.0,75214.0,85666.8,75243.8,-128.3,-107.3,30.48,-12.80000000000291,-29.80000000000291
3050.0,30500.0,85701.0,75217.0,85667.1,75243.5,-86.0,-83.7,30.5,33.89999999999418,-26.5
3052.0,30520.0,85732.0,75235.0,85667.8,75243.3,-35.2,-59.7,30.52,64.19999999999709,-8.30000000000291
3054.0,30540.0,85805.0,75242.0,85669.0,75243.3,15.4,-37.1,30.54,136.0,-1.3000000000029104
3056.0,30560.0,85881.0,75266.0,85670.9,75243.6,67.5,-15.9,30.56,210.10000000000582,22.39999999999418
3058.0,30580.0,85893.0,75266.0,85672.9,75243.8,120.6,3.0,30.58,220.10000000000582,22.19999999999709
3060.0,30600.0,85926.0,75295.0,85675.3,75244.2,166.7,17.5,30.6,250.6999999999971,50.80000000000291
3062.0,30620.0,85960.0,75311.0,85678.1,75244.8,207.1,30.0,30.62,281.8999999999942,66.19999999999709
3064.0,30640.0,85995.0,75297.0,85681.3,75245.3,246.8,41.3,30.64,313.6999999999971,51.69999999999709
3066.0,30660.0,85999.0,75313.0,85684.6,75245.9,282.8,48.8,30.66,314.3999999999942,67.10000000000582
3068.0,30680.0,86028.0,75292.0,85688.0,75246.4,309.2,54.3,30.68,340.0,45.60000000000582
3070.0,30700.0,86042.0,75298.0,85691.4,75247.0,327.0,57.1,30.7,350.6000000000058,51.0
3072.0,30720.0,86036.0,75291.0,85694.7,75247.4,336.1,57.1,30.72,341.3000000000029,43.60000000000582
3074.0,30740.0,86041.0,75312.0,85698.0,75248.0,336.8,55.2,30.74,343.0,64.0
3076.0,30760.0,86027.0,75333.0,85701.3,75248.7,335.8,54.8,30.76,325.6999999999971,84.30000000000291
3078.0,30780.0,86059.0,75341.0,85705.0,75249.5,338.1,59.5,30.78,354.0,91.5
3080.0,30800.0,86076.0,75366.0,85708.7,75250.5,345.9,69.0,30.8,367.3000000000029,115.5
3082.0,30820.0,86116.0,75365.0,85712.7,75251.7,357.6,82.9,30.82,403.3000000000029,113.30000000000291
3084.0,30840.0,86092.0,75358.0,85716.6,75252.9,371.8,97.4,30.84,375.3999999999942,105.10000000000582
3086.0,30860.0,85886.0,75293.0,85718.7,75253.4,367.6,103.1,30.86,167.3000000000029,39.60000000000582
3088.0,30880.0,85624.0,75193.0,85718.3,75253.1,305.8,86.4,30.88,-94.30000000000291,-60.10000000000582
3090.0,30900.0,85302.0,75083.0,85714.9,75251.6,168.6,39.2,30.9,-412.8999999999942,-168.60000000000582
3092.0,30920.0,85065.0,74993.0,85709.0,75249.2,-37.3,-35.5,30.92,-644.0,-256.1999999999971
3094.0,30940.0,84939.0,74961.0,85701.6,75246.3,-275.7,-122.3,30.94,-762.6000000000058,-285.3000000000029
3096.0,30960.0,84972.0,74950.0,85694.3,75243.4,-492.1,-199.6,30.96,-722.3000000000029,-293.3999999999942
3098.0,30980.0,85047.0,74981.0,85687.5,75240.8,-638.6,-252.5,30.98,-640.5,-259.8000000000029
3100.0,31000.0,85104.0,75019.0,85681.5,75238.5,-701.6,-274.5,31.0,-577.5,-219.5
3102.0,31020.0,85180.0,75052.0,85676.2,75236.5,-695.3,-269.0,31.02,-496.1999999999971,-184.5
3104.0,31040.0,85234.0,75075.0,85671.7,75234.8,-641.7,-245.7,31.04,-437.6999999999971,-159.8000000000029
3106.0,31060.0,85293.0,75094.0,85667.9,75233.3,-564.6,-214.8,31.06,-374.8999999999942,-139.3000000000029
3108.0,31080.0,85350.0,75120.0,85664.6,75232.2,-481.8,-181.7,31.08,-314.6000000000058,-112.19999999999709
3110.0,31100.0,85410.0,75135.0,85662.0,75231.2,-402.8,-149.9,31.1,-252.0,-96.19999999999709
3112.0,31120.0,85425.0,75130.0,85659.5,75230.2,-333.4,-123.3,31.12,-234.5,-100.19999999999709
3114.0,31140.0,85388.0,75119.0,85656.9,75229.1,-282.1,-106.7,31.14,-268.8999999999942,-110.10000000000582
3116.0,31160.0,85387.0,75093.0,85654.2,75227.9,-255.9,-101.5,31.16,-267.1999999999971,-134.89999999999418
3118.0,31180.0,85348.0,75076.0,85651.3,75226.4,-249.9,-107.7,31.18,-303.3000000000029,-150.39999999999418
3120.0,31200.0,85327.0,75050.0,85648.1,75224.7,-259.9,-122.5,31.2,-321.1000000000058,-174.6999999999971
3122.0,31220.0,85329.0,75043.0,85645.0,75222.9,-278.0,-141.6,31.22,-316.0,-179.89999999999418
3124.0,31240.0,85358.0,75049.0,85642.1,75221.1,-293.1,-159.1,31.24,-284.1000000000058,-172.10000000000582
3126.0,31260.0,85395.0,75056.0,85639.5,75219.4,-296.6,-169.6,31.26,-244.5,-163.39999999999418
3128.0,31280.0,85440.0,75091.0,85637.3,75218.1,-284.9,-170.4,31.28,-197.3000000000029,-127.10000000000582
3130.0,31300.0,85501.0,75107.0,85635.8,75216.9,-256.8,-160.0,31.3,-134.8000000000029,-109.89999999999418
3132.0,31320.0,85568.0,75128.0,85634.9,75216.0,-213.0,-142.0,31.32,-66.89999999999418,-88.0
3134.0,31340.0,85642.0,75163.0,85634.8,75215.4,-156.1,-118.8,31.34,7.19999999999709,-52.39999999999418
3136.0,31360.0,85733.0,75200.0,85635.6,75215.2,-88.9,-90.5,31.36,97.39999999999418,-15.19999999999709
3138.0,31380.0,85807.0,75210.0,85637.1,75215.1,-12.9,-60.5,31.38,169.89999999999418,-5.100000000005821
3140.0,31400.0,85876.0,75222.0,85639.3,75215.2,66.6,-33.8,31.4,236.6999999999971,6.80000000000291
3142.0,31420.0,85935.0,75246.0,85642.1,75215.4,143.1,-11.8,31.42,292.8999999999942,30.60000000000582
3144.0,31440.0,85974.0,75251.0,85645.3,75215.7,212.2,6.1,31.44,328.6999999999971,35.30000000000291
3146.0,31460.0,86003.0,75252.0,85648.8,75216.0,270.2,19.9,31.46,354.1999999999971,36.0
3148.0,31480.0,86031.0,75251.0,85652.5,75216.4,316.0,29.3,31.48,378.5,34.60000000000582
3150.0,31500.0,86064.0,75261.0,85656.5,75216.8,351.5,36.1,31.5,407.5,44.19999999999709
3152.0,31520.0,86079.0,75252.0,85660.7,75217.2,379.0,40.9,31.52,418.3000000000029,34.80000000000291
3154.0,31540.0,86107.0,75256.0,85665.0,75217.6,400.5,42.0,31.54,442.0,38.39999999999418
3156.0,31560.0,86091.0,75274.0,85669.3,75218.1,417.1,41.7,31.56,421.6999999999971,55.89999999999418
3158.0,31580.0,86111.0,75251.0,85673.7,75218.4,426.8,41.7,31.58,437.3000000000029,32.60000000000582
3160.0,31600.0,86133.0,75262.0,85678.1,75218.8,433.2,40.0,31.6,454.8999999999942,43.19999999999709
3162.0,31620.0,86158.0,75279.0,85682.9,75219.4,441.4,40.7,31.62,475.1000000000058,59.60000000000582
3164.0,31640.0,86213.0,75302.0,85688.0,75220.2,456.0,47.8,31.64,525.0,81.80000000000291
3166.0,31660.0,86251.0,75324.0,85693.6,75221.2,480.0,60.3,31.66,557.3999999999942,102.80000000000291
3168.0,31680.0,86294.0,75353.0,85699.5,75222.4,510.8,77.0,31.68,594.5,130.60000000000582
3170.0,31700.0,86203.0,75331.0,85704.8,75223.6,539.7,95.9,31.7,498.1999999999971,107.39999999999418
3172.0,31720.0,85880.0,75188.0,85707.5,75223.6,529.8,99.9,31.72,172.5,-35.60000000000582
3174.0,31740.0,85569.0,75075.0,85706.8,75222.3,430.3,65.8,31.74,-137.8000000000029,-147.3000000000029
3176.0,31760.0,85294.0,74975.0,85703.5,75220.1,241.0,-4.1,31.76,-409.5,-245.10000000000582
3178.0,31780.0,86003.0,75252.0,85702.4,75219.0,15.6,-85.6,31.78,300.6000000000058,33.0
3180.0,31800.0,85053.0,74890.0,85696.1,75215.8,-143.0,-141.4,31.8,-643.1000000000058,-325.8000000000029
3182.0,31820.0,85076.0,74906.0,85689.8,75212.6,-322.4,-206.2,31.82,-613.8000000000029,-306.6000000000058
3184.0,31840.0,85161.0,74962.0,85684.3,75209.9,-468.9,-257.1,31.84,-523.3000000000029,-247.89999999999418
3186.0,31860.0,85281.0,75018.0,85680.0,75207.9,-539.9,-275.1,31.86,-399.0,-189.89999999999418
3188.0,31880.0,85382.0,75072.0,85676.8,75206.4,-531.7,-259.8,31.88,-294.8000000000029,-134.39999999999418
3190.0,31900.0,85465.0,75122.0,85674.5,75205.4,-466.7,-220.8,31.9,-209.5,-83.39999999999418
3192.0,31920.0,85577.0,75180.0,85673.2,75205.1,-370.8,-167.8,31.92,-96.19999999999709,-25.10000000000582
3194.0,31940.0,85664.0,75204.0,85673.0,75205.0,-259.2,-110.5,31.94,-9.0,-1.0
3196.0,31960.0,85723.0,75210.0,85673.5,75205.0,-146.5,-59.9,31.96,49.5,5.0
3198.0,31980.0,85758.0,75216.0,85674.2,75205.1,-49.1,-22.5,31.98,83.80000000000291,10.89999999999418
3200.0,32000.0,85754.0,75192.0,85675.0,75205.0,23.7,0.1,32.0,79.0,-13.0
3202.0,32020.0,85696.0,75156.0,85675.3,75204.6,64.2,5.3,32.02,20.69999999999709,-48.60000000000582
3204.0,32040.0,85640.0,75137.0,85675.1,75204.1,68.0,-5.1,32.04,-35.10000000000582,-67.10000000000582
3206.0,32060.0,85624.0,75135.0,85674.6,75203.4,43.8,-24.2,32.06,-50.60000000000582,-68.39999999999418
3208.0,32080.0,85603.0,75131.0,85673.9,75202.6,8.5,-44.0,32.08,-70.89999999999418,-71.60000000000582
3210.0,32100.0,85623.0,75148.0,85673.3,75202.0,-24.9,-59.2,32.1,-50.30000000000291,-54.0
3212.0,32120.0,85658.0,75169.0,85673.1,75201.6,-44.8,-64.8,32.12,-15.10000000000582,-32.60000000000582
3214.0,32140.0,85732.0,75187.0,85673.4,75201.4,-43.4,-58.7,32.14,58.60000000000582,-14.39999999999418
3216.0,32160.0,85789.0,75210.0,85674.4,75201.5,-18.0,-43.5,32.16,114.60000000000582,8.5
3218.0,32180.0,85846.0,75244.0,85675.9,75201.9,25.6,-21.9,32.18,170.10000000000582,42.10000000000582
3220.0,32200.0,85927.0,75269.0,85678.2,75202.4,81.9,3.8,32.2,248.8000000000029,66.60000000000582
3222.0,32220.0,86005.0,75307.0,85681.3,75203.4,149.8,31.2,32.22,323.6999999999971,103.60000000000582
3224.0,32240.0,86069.0,75337.0,85685.0,75204.6,223.8,60.3,32.24,384.0,132.39999999999418
3226.0,32260.0,86139.0,75346.0,85689.4,75206.0,296.4,89.1,32.26,449.6000000000058,140.0
3228.0,32280.0,86216.0,75378.0,85694.4,75207.6,366.8,115.1,32.28,521.6000000000058,170.39999999999418
3230.0,32300.0,86241.0,75386.0,85699.8,75209.4,433.5,139.6,32.3,541.1999999999971,176.60000000000582
3232.0,32320.0,86269.0,75385.0,85705.4,75211.2,488.2,159.8,32.32,563.6000000000058,173.8000000000029
3234.0,32340.0,86282.0,75385.0,85711.1,75213.0,528.8,172.9,32.34,570.8999999999942,172.0
3236.0,32360.0,86282.0,75393.0,85716.8,75214.8,556.8,179.4,32.36,565.1999999999971,178.1999999999971
3238.0,32380.0,86283.0,75420.0,85722.5,75216.7,571.1,182.8,32.38,560.5,203.3000000000029
3240.0,32400.0,86313.0,75413.0,85728.4,75218.6,576.8,186.8,32.4,584.6000000000058,194.39999999999418
3242.0,32420.0,86354.0,75426.0,85734.5,75220.7,583.1,190.5,32.42,619.5,205.3000000000029
3244.0,32440.0,86368.0,75435.0,85740.8,75222.8,593.5,195.9,32.44,627.1999999999971,212.1999999999971
3246.0,32460.0,86428.0,75450.0,85747.4,75225.1,608.3,204.6,32.46,680.6000000000058,224.89999999999418
3248.0,32480.0,86441.0,75445.0,85754.3,75227.4,631.1,214.7,32.48,686.6999999999971,217.60000000000582
3250.0,32500.0,86204.0,75342.0,85759.6,75228.9,644.3,216.4,32.5,444.3999999999942,113.10000000000582
3252.0,32520.0,85863.0,75225.0,85761.5,75229.1,590.7,187.8,32.52,101.5,-4.100000000005821
3254.0,32540.0,85605.0,75092.0,85760.5,75227.9,441.9,120.6,32.54,-155.5,-135.89999999999418
3256.0,32560.0,85427.0,75028.0,85757.6,75225.9,226.8,25.8,32.56,-330.6000000000058,-197.89999999999418
3258.0,32580.0,85320.0,74989.0,85753.5,75223.6,-4.3,-71.8,32.58,-433.5,-234.60000000000582
3260.0,32600.0,85334.0,74991.0,85749.2,75221.5,-205.4,-149.4,32.6,-415.1999999999971,-230.5
3262.0,32620.0,85391.0,75014.0,85745.4,75219.4,-341.4,-198.0,32.62,-354.3999999999942,-205.39999999999418
3264.0,32640.0,85482.0,75073.0,85742.6,75217.9,-398.5,-215.9,32.64,-260.6000000000058,-144.89999999999418
3266.0,32660.0,85585.0,75137.0,85740.8,75216.9,-383.8,-204.2,32.66,-155.8000000000029,-79.89999999999418
3268.0,32680.0,85695.0,75157.0,85740.1,75216.1,-316.2,-171.1,32.68,-45.10000000000582,-59.10000000000582
3270.0,32700.0,85777.0,75192.0,85740.3,75215.7,-218.1,-130.0,32.7,36.69999999999709,-23.69999999999709
3272.0,32720.0,85922.0,75229.0,85741.7,75215.8,-107.3,-86.3,32.72,180.3000000000029,13.19999999999709
3274.0,32740.0,86029.0,75261.0,85744.3,75216.3,11.8,-40.3,32.74,284.6999999999971,44.69999999999709
3276.0,32760.0,86031.0,75246.0,85747.2,75216.7,126.4,0.8,32.76,283.8000000000029,29.30000000000291
3278.0,32780.0,85985.0,75235.0,85749.7,75217.0,212.1,26.8,32.78,235.3000000000029,18.0
3280.0,32800.0,85894.0,75236.0,85751.3,75217.0,250.2,34.3,32.8,142.6999999999971,19.0
3282.0,32820.0,85820.0,75163.0,85752.3,75216.5,238.8,25.4,32.82,67.69999999999709,-53.5
3284.0,32840.0,85758.0,75149.0,85752.5,75215.7,190.7,0.6,32.84,5.5,-66.69999999999709
3286.0,32860.0,85731.0,75116.0,85752.4,75214.8,124.4,-29.2,32.86,-21.39999999999418,-98.80000000000291
3288.0,32880.0,85742.0,75129.0,85752.1,75214.1,59.6,-54.8,32.88,-10.10000000000582,-85.10000000000582
3290.0,32900.0,85753.0,75132.0,85752.1,75213.3,13.4,-70.8,32.9,0.8999999999941792,-81.30000000000291
3292.0,32920.0,85798.0,75176.0,85752.4,75212.9,-7.7,-76.2,32.92,45.60000000000582,-36.89999999999418
3294.0,32940.0,85843.0,75221.0,85753.2,75212.8,-2.3,-68.4,32.94,89.80000000000291,8.19999999999709
3296.0,32960.0,85911.0,75229.0,85754.7,75212.9,27.0,-48.8,32.96,156.3000000000029,16.10000000000582
3298.0,32980.0,85977.0,75263.0,85756.7,75213.2,73.6,-24.6,32.98,220.3000000000029,49.80000000000291
3300.0,33000.0,86034.0,75283.0,85759.3,75213.8,130.2,3.3,33.0,274.6999999999971,69.19999999999709
3302.0,33020.0,86102.0,75290.0,85762.5,75214.7,190.9,33.1,33.02,339.5,75.30000000000291
3304.0,33040.0,86109.0,75287.0,85765.9,75215.5,250.6,58.6,33.04,343.1000000000058,71.5
3306.0,33060.0,86146.0,75327.0,85769.6,75216.6,300.0,77.0,33.06,376.3999999999942,110.39999999999418
3308.0,33080.0,86147.0,75347.0,85773.4,75217.8,338.5,92.2,33.08,373.6000000000058,129.1999999999971
3310.0,33100.0,86151.0,75334.0,85777.3,75218.9,365.8,104.8,33.1,373.6999999999971,115.10000000000582
3312.0,33120.0,86143.0,75346.0,85781.0,75220.1,381.1,112.2,33.12,362.0,125.89999999999418
3314.0,33140.0,86142.0,75338.0,85784.6,75221.3,383.9,116.9,33.14,357.3999999999942,116.69999999999709
3316.0,33160.0,86149.0,75353.0,85788.2,75222.7,377.8,121.4,33.16,360.8000000000029,130.3000000000029
3318.0,33180.0,86137.0,75342.0,85791.7,75223.9,368.7,126.0,33.18,345.3000000000029,118.10000000000582
3320.0,33200.0,86133.0,75365.0,85795.0,75225.3,358.3,128.6,33.2,338.0,139.6999999999971
3322.0,33220.0,86124.0,75365.0,85798.4,75226.7,349.1,132.1,33.22,325.6000000000058,138.3000000000029
3324.0,33240.0,86044.0,75309.0,85801.3,75227.7,338.8,132.0,33.24,242.6999999999971,81.30000000000291
3326.0,33260.0,85797.0,75207.0,85801.9,75227.7,302.7,114.9,33.26,-4.899999999994179,-20.69999999999709
3328.0,33280.0,85526.0,75079.0,85799.9,75226.5,205.7,69.9,33.28,-273.8999999999942,-147.5
3330.0,33300.0,85281.0,74970.0,85795.2,75224.3,39.5,-3.3,33.3,-514.1999999999971,-254.3000000000029
3332.0,33320.0,85108.0,74901.0,85788.7,75221.3,-173.5,-95.6,33.32,-680.6999999999971,-320.3000000000029
3334.0,33340.0,85054.0,74898.0,85781.4,75218.1,-390.4,-188.2,33.34,-727.3999999999942,-320.1000000000058
3336.0,33360.0,85079.0,74924.0,85774.3,75215.0,-564.0,-259.8,33.36,-695.3000000000029,-291.0
3338.0,33380.0,85172.0,74956.0,85768.2,75212.3,-663.5,-298.5,33.38,-596.1999999999971,-256.3000000000029
3340.0,33400.0,85240.0,74998.0,85762.8,75210.0,-684.5,-304.1,33.4,-522.8000000000029,-212.0
3342.0,33420.0,85342.0,75016.0,85758.4,75208.1,-647.5,-282.9,33.42,-416.3999999999942,-192.10000000000582
3344.0,33440.0,85427.0,75062.0,85754.8,75206.6,-573.6,-247.2,33.44,-327.8000000000029,-144.60000000000582
3346.0,33460.0,85472.0,75080.0,85751.8,75205.2,-482.7,-206.4,33.46,-279.8000000000029,-125.19999999999709
3348.0,33480.0,85539.0,75117.0,85749.4,75204.4,-392.7,-166.4,33.48,-210.39999999999418,-87.39999999999418
3350.0,33500.0,85574.0,75130.0,85747.6,75203.5,-310.0,-130.1,33.5,-173.60000000000582,-73.5
3352.0,33520.0,85575.0,75127.0,85746.0,75202.8,-240.2,-102.0,33.52,-171.0,-75.80000000000291
3354.0,33540.0,85539.0,75110.0,85744.1,75201.8,-193.4,-85.5,33.54,-205.10000000000582,-91.80000000000291
3356.0,33560.0,85503.0,75074.0,85741.9,75200.7,-175.8,-81.4,33.56,-238.89999999999418,-126.69999999999709
3358.0,33580.0,85456.0,75054.0,85739.0,75199.3,-186.4,-89.6,33.58,-283.0,-145.3000000000029
3360.0,33600.0,85416.0,75034.0,85735.9,75197.7,-217.5,-107.2,33.6,-319.8999999999942,-163.6999999999971
3362.0,33620.0,85400.0,75052.0,85732.4,75196.2,-258.4,-127.1,33.62,-332.3999999999942,-144.1999999999971
3364.0,33640.0,85389.0,75043.0,85729.1,75194.6,-295.5,-142.1,33.64,-340.1000000000058,-151.60000000000582
3366.0,33660.0,85431.0,75056.0,85726.0,75193.2,-318.6,-150.4,33.66,-295.0,-137.1999999999971
3368.0,33680.0,85463.0,75076.0,85723.3,75192.0,-321.7,-150.5,33.68,-260.3000000000029,-116.0
3370.0,33700.0,85523.0,75102.0,85721.2,75191.0,-304.5,-141.2,33.7,-198.1999999999971,-89.0
3372.0,33720.0,85583.0,75117.0,85719.6,75190.3,-269.6,-123.3,33.72,-136.60000000000582,-73.30000000000291
3374.0,33740.0,85618.0,75145.0,85718.5,75189.8,-222.0,-101.0,33.74,-100.5,-44.80000000000291
3376.0,33760.0,85670.0,75152.0,85717.8,75189.4,-170.5,-77.6,33.76,-47.80000000000291,-37.39999999999418
3378.0,33780.0,85693.0,75169.0,85717.5,75189.2,-119.5,-56.7,33.78,-24.5,-20.19999999999709
3380.0,33800.0,85719.0,75174.0,85717.5,75189.0,-73.1,-39.6,33.8,1.5,-15.0
3382.0,33820.0,85734.0,75188.0,85717.6,75188.9,-35.2,-26.3,33.82,16.39999999999418,-0.8999999999941792
3384.0,33840.0,85769.0,75193.0,85718.0,75188.9,-5.3,-15.3,33.84,51.0,4.100000000005821
3386.0,33860.0,85786.0,75186.0,85718.7,75189.0,20.8,-6.2,33.86,67.30000000000291,-3.0
3388.0,33880.0,85784.0,75212.0,85719.3,75189.1,42.2,0.6,33.88,64.69999999999709,22.89999999999418
3390.0,33900.0,85795.0,75212.0,85720.0,75189.4,56.8,8.4,33.9,75.0,22.60000000000582
3392.0,33920.0,85763.0,75206.0,85720.5,75189.6,64.9,15.6,33.92,42.5,16.39999999999418
3394.0,33940.0,85711.0,75187.0,85720.6,75189.6,62.6,18.3,33.94,-9.60000000000582,-2.6000000000058208
3396.0,33960.0,85521.0,75113.0,85719.2,75189.0,37.4,10.9,33.96,-198.1999999999971,-76.0
3398.0,33980.0,85259.0,75003.0,85715.4,75187.4,-37.7,-17.7,33.98,-456.3999999999942,-184.39999999999418
3400.0,34000.0,84958.0,74859.0,85708.5,75184.5,-181.8,-76.3,34.0,-750.5,-325.5
3402.0,34020.0,84739.0,74788.0,85699.3,75180.7,-388.0,-163.0,34.02,-960.3000000000029,-392.6999999999971
3404.0,34040.0,84657.0,74743.0,85689.1,75176.5,-616.8,-257.0,34.04,-1032.1000000000058,-433.5
3406.0,34060.0,84653.0,74760.0,85678.8,75172.3,-814.9,-337.8,34.06,-1025.800000000003,-412.3000000000029
3408.0,34080.0,84697.0,74784.0,85668.9,75168.3,-947.5,-391.0,34.08,-971.8999999999942,-384.3000000000029
3410.0,34100.0,84760.0,74812.0,85659.7,75164.6,-1006.3,-411.4,34.1,-899.6999999999971,-352.6000000000058
3412.0,34120.0,84822.0,74837.0,85651.1,75161.3,-1002.3,-405.1,34.12,-829.1000000000058,-324.3000000000029
3414.0,34140.0,84880.0,74842.0,85643.3,75158.1,-956.1,-382.5,34.14,-763.3000000000029,-316.1000000000058
3416.0,34160.0,84919.0,74888.0,85636.0,75155.3,-887.9,-353.5,34.16,-717.0,-267.3000000000029
3418.0,34180.0,84988.0,74900.0,85629.3,75152.7,-814.1,-320.7,34.18,-641.3000000000029,-252.6999999999971
3420.0,34200.0,85011.0,74906.0,85623.1,75150.2,-740.8,-289.7,34.2,-612.1000000000058,-244.1999999999971
3422.0,34220.0,85023.0,74901.0,85617.2,75147.8,-675.9,-265.6,34.22,-594.1999999999971,-246.8000000000029
3424.0,34240.0,85021.0,74913.0,85611.3,75145.4,-627.2,-249.7,34.24,-590.3000000000029,-232.39999999999418
3426.0,34260.0,84995.0,74874.0,85605.2,75142.7,-598.5,-242.4,34.26,-610.1999999999971,-268.6999999999971
3428.0,34280.0,84943.0,74834.0,85598.7,75139.7,-591.8,-247.7,34.28,-655.6999999999971,-305.6999999999971
3430.0,34300.0,84918.0,74850.0,85592.0,75136.8,-604.8,-262.0,34.3,-674.0,-286.8000000000029
3432.0,34320.0,84899.0,74837.0,85585.1,75133.9,-627.5,-275.4,34.32,-686.1000000000058,-296.8999999999942
3434.0,34340.0,84905.0,74846.0,85578.3,75131.0,-650.4,-285.1,34.34,-673.3000000000029,-285.0
3436.0,34360.0,84923.0,74846.0,85571.7,75128.1,-664.9,-290.1,34.36,-648.6999999999971,-282.1000000000058
3438.0,34380.0,84950.0,74882.0,85565.4,75125.5,-666.3,-288.7,34.38,-615.3999999999942,-243.5
3440.0,34400.0,84984.0,74893.0,85559.6,75123.2,-653.2,-277.4,34.4,-575.6000000000058,-230.1999999999971
3442.0,34420.0,85031.0,74897.0,85554.1,75120.9,-626.8,-260.8,34.42,-523.1000000000058,-223.89999999999418
3444.0,34440.0,85060.0,74930.0,85549.1,75118.9,-591.1,-243.3,34.44,-489.1000000000058,-188.89999999999418
3446.0,34460.0,85099.0,74917.0,85544.6,75116.9,-548.9,-224.7,34.46,-445.6000000000058,-199.89999999999418
3448.0,34480.0,85129.0,74929.0,85540.3,75115.0,-504.0,-208.8,34.48,-411.3000000000029,-186.0
3450.0,34500.0,85147.0,74935.0,85536.4,75113.2,-461.7,-195.7,34.5,-389.3999999999942,-178.1999999999971
3452.0,34520.0,85172.0,74963.0,85532.6,75111.7,-425.5,-183.5,34.52,-360.6000000000058,-148.6999999999971
3454.0,34540.0,85187.0,74964.0,85529.1,75110.2,-395.5,-171.0,34.54,-342.1000000000058,-146.1999999999971
3456.0,34560.0,85201.0,74963.0,85525.7,75108.7,-370.5,-160.7,34.56,-324.6999999999971,-145.6999999999971
3458.0,34580.0,85203.0,74981.0,85522.5,75107.3,-349.9,-152.4,34.58,-319.5,-126.30000000000291
3460.0,34600.0,85221.0,74963.0,85519.5,75106.1,-332.0,-142.8,34.6,-298.5,-143.10000000000582
3462.0,34620.0,85222.0,74970.0,85516.6,75104.7,-315.2,-135.8,34.62,-294.6000000000058,-134.6999999999971
3464.0,34640.0,85146.0,74934.0,85513.2,75103.1,-305.1,-134.6,34.64,-367.1999999999971,-169.10000000000582
3466.0,34660.0,84905.0,74846.0,85507.9,75100.9,-322.7,-144.7,34.66,-602.8999999999942,-254.89999999999418
3468.0,34680.0,84697.0,74737.0,85500.6,75097.5,-397.3,-178.1,34.68,-803.6000000000058,-360.5
3470.0,34700.0,84440.0,74616.0,85490.7,75093.0,-534.9,-240.5,34.7,-1050.699999999997,-477.0
3472.0,34720.0,84241.0,74564.0,85478.6,75087.8,-725.7,-325.3,34.72,-1237.6000000000058,-523.8000000000029
