sample,time_ms,ir_raw,red_raw,ir_dc,red_dc,ir_ac,red_ac,time_s,ir_raw_minus_dc,red_raw_minus_dc
3000.0,30000.0,86099.0,75355.0,85719.7,75283.0,382.2,70.9,30.0,379.3000000000029,72.0
3002.0,30020.0,85939.0,75278.0,85722.3,75283.2,383.4,72.9,30.02,216.6999999999971,-5.19999999999709
3004.0,30040.0,85672.0,75165.0,85722.6,75282.3,333.9,51.1,30.04,-50.60000000000582,-117.30000000000291
3006.0,30060.0,85408.0,75072.0,85720.1,75280.4,212.3,-1.8,30.06,-312.1000000000058,-208.39999999999418
3008.0,30080.0,85192.0,74980.0,85715.3,75277.6,25.6,-79.0,30.08,-523.3000000000029,-297.6000000000058
3010.0,30100.0,85105.0,74939.0,85709.3,75274.3,-190.5,-166.6,30.1,-604.3000000000029,-335.3000000000029
3012.0,30120.0,85075.0,74946.0,85703.0,75270.9,-386.0,-245.0,30.12,-628.0,-324.8999999999942
3014.0,30140.0,85152.0,74964.0,85697.3,75267.9,-524.1,-296.8,30.14,-545.3000000000029,-303.8999999999942
3016.0,30160.0,85231.0,75000.0,85692.4,75265.2,-586.0,-317.4,30.16,-461.3999999999942,-265.1999999999971
3018.0,30180.0,85313.0,75038.0,85688.4,75262.8,-578.5,-311.1,30.18,-375.3999999999942,-224.8000000000029
3020.0,30200.0,85379.0,75080.0,85685.2,75260.8,-522.9,-287.0,30.2,-306.1999999999971,-180.8000000000029
3022.0,30220.0,85427.0,75085.0,85682.5,75259.0,-443.6,-252.5,30.22,-255.5,-174.0
3024.0,30240.0,85505.0,75114.0,85680.6,75257.5,-359.0,-217.1,30.24,-175.60000000000582,-143.5
3026.0,30260.0,85555.0,75123.0,85679.2,75256.1,-277.5,-184.3,30.26,-124.19999999999709,-133.10000000000582
3028.0,30280.0,85582.0,75141.0,85678.1,75255.0,-205.6,-155.0,30.28,-96.10000000000582,-114.0
3030.0,30300.0,85566.0,75127.0,85677.0,75253.8,-150.5,-132.4,30.3,-111.0,-126.80000000000291
3032.0,30320.0,85540.0,75121.0,85675.8,75252.5,-118.3,-120.8,30.32,-135.8000000000029,-131.5
3034.0,30340.0,85939.0,75278.0,85676.4,75252.0,-100.6,-115.5,30.34,262.6000000000058,26.0
3036.0,30360.0,85485.0,75097.0,85674.6,75250.4,-67.4,-104.3,30.36,-189.60000000000582,-153.39999999999418
3038.0,30380.0,85475.0,75097.0,85672.7,75248.9,-77.8,-110.1,30.38,-197.6999999999971,-151.89999999999418
3040.0,30400.0,85480.0,75099.0,85670.8,75247.4,-111.7,-123.3,30.4,-190.8000000000029,-148.39999999999418
3042.0,30420.0,85531.0,75126.0,85669.2,75246.2,-143.5,-131.9,30.42,-138.1999999999971,-120.19999999999709
3044.0,30440.0,85551.0,75138.0,85667.9,75245.1,-157.9,-131.9,30.44,-116.89999999999418,-107.10000000000582
3046.0,30460.0,85608.0,75178.0,85667.0,75244.3,-153.3,-124.0,30.46,-59.0,-66.30000000000291
3048.0,30480.0,85654.0,75214.0,85666.8,75243.8,-128.3,-107.3,30.48,-12.80000000000291,-29.80000000000291
3050.0,30500.0,85701.0,75217.0,85667.1,75243.5,-86.0,-83.7,30.5,33.89999999999418,-26.5
3052.0,30520.0,85732.0,75235.0,85667.8,75243.3,-35.2,-59.7,30.52,64.19999999999709,-8.30000000000291
3054.0,30540.0,85805.0,75242.0,85669.0,75243.3,15.4,-37.1,30.54,136.0,-1.3000000000029104
3056.0,30560.0,85881.0,75266.0,85670.9,75243.6,67.5,-15.9,30.56,210.10000000000582,22.39999999999418
3058.0,30580.0,85893.0,75266.0,85672.9,75243.8,120.6,3.0,30.58,220.10000000000582,22.19999999999709
3060.0,30600.0,85926.0,75295.0,85675.3,75244.2,166.7,17.5,30.6,250.6999999999971,50.80000000000291
3062.0,30620.0,85960.0,75311.0,85678.1,75244.8,207.1,30.0,30.62,281.8999999999942,66.19999999999709
3064.0,30640.0,85995.0,75297.0,85681.3,75245.3,246.8,41.3,30.64,313.6999999999971,51.69999999999709
3066.0,30660.0,85999.0,75313.0,85684.6,75245.9,282.8,48.8,30.66,314.3999999999942,67.10000000000582
3068.0,30680.0,86028.0,75292.0,85688.0,75246.4,309.2,54.3,30.68,340.0,45.60000000000582
3070.0,30700.0,86042.0,75298.0,85691.4,75247.0,327.0,57.1,30.7,350.6000000000058,51.0
3072.0,30720.0,86036.0,75291.0,85694.7,75247.4,336.1,57.1,30.72,341.3000000000029,43.60000000000582
3074.0,30740.0,86041.0,75312.0,85698.0,75248.0,336.8,55.2,30.74,343.0,64.0
3076.0,30760.0,86027.0,75333.0,85701.3,75248.7,335.8,54.8,30.76,325.6999999999971,84.30000000000291
3078.0,30780.0,86059.0,75341.0,85705.0,75249.5,338.1,59.5,30.78,354.0,91.5
3080.0,30800.0,86076.0,75366.0,85708.7,75250.5,345.9,69.0,30.8,367.3000000000029,115.5
3082.0,30820.0,86116.0,75365.0,85712.7,75251.7,357.6,82.9,30.82,403.3000000000029,113.30000000000291
3084.0,30840.0,86092.0,75358.0,85716.6,75252.9,371.8,97.4,30.84,375.3999999999942,105.10000000000582
3086.0,30860.0,85886.0,75293.0,85718.7,75253.4,367.6,103.1,30.86,167.3000000000029,39.60000000000582
3088.0,30880.0,85624.0,75193.0,85718.3,75253.1,305.8,86.4,30.88,-94.30000000000291,-60.10000000000582
3090.0,30900.0,85302.0,75083.0,85714.9,75251.6,168.6,39.2,30.9,-412.8999999999942,-168.60000000000582
3092.0,30920.0,85065.0,74993.0,85709.0,75249.2,-37.3,-35.5,30.92,-644.0,-256.1999999999971
3094.0,30940.0,84939.0,74961.0,85701.6,75246.3,-275.7,-122.3,30.94,-762.6000000000058,-285.3000000000029
3096.0,30960.0,84972.0,74950.0,85694.3,75243.4,-492.1,-199.6,30.96,-722.3000000000029,-293.3999999999942
3098.0,30980.0,85047.0,74981.0,85687.5,75240.8,-638.6,-252.5,30.98,-640.5,-259.8000000000029
3100.0,31000.0,85104.0,75019.0,85681.5,75238.5,-701.6,-274.5,31.0,-577.5,-219.5
3102.0,31020.0,85180.0,75052.0,85676.2,75236.5,-695.3,-269.0,31.02,-496.1999999999971,-184.5
3104.0,31040.0,85234.0,75075.0,85671.7,75234.8,-641.7,-245.7,31.04,-437.6999999999971,-159.8000000000029
3106.0,31060.0,85293.0,75094.0,85667.9,75233.3,-564.6,-214.8,31.06,-374.8999999999942,-139.3000000000029
3108.0,31080.0,85350.0,75120.0,85664.6,75232.2,-481.8,-181.7,31.08,-314.6000000000058,-112.19999999999709
3110.0,31100.0,85410.0,75135.0,85662.0,75231.2,-402.8,-149.9,31.1,-252.0,-96.19999999999709
3112.0,31120.0,85425.0,75130.0,85659.5,75230.2,-333.4,-123.3,31.12,-234.5,-100.19999999999709
3114.0,31140.0,85388.0,75119.0,85656.9,75229.1,-282.1,-106.7,31.14,-268.8999999999942,-110.10000000000582
3116.0,31160.0,85387.0,75093.0,85654.2,75227.9,-255.9,-101.5,31.16,-267.1999999999971,-134.89999999999418
3118.0,31180.0,85348.0,75076.0,85651.3,75226.4,-249.9,-107.7,31.18,-303.3000000000029,-150.39999999999418
3120.0,31200.0,85327.0,75050.0,85648.1,75224.7,-259.9,-122.5,31.2,-321.1000000000058,-174.6999999999971
3122.0,31220.0,85329.0,75043.0,85645.0,75222.9,-278.0,-141.6,31.22,-316.0,-179.89999999999418
3124.0,31240.0,85358.0,75049.0,85642.1,75221.1,-293.1,-159.1,31.24,-284.1000000000058,-172.10000000000582
3126.0,31260.0,85395.0,75056.0,85639.5,75219.4,-296.6,-169.6,31.26,-244.5,-163.39999999999418
3128.0,31280.0,85440.0,75091.0,85637.3,75218.1,-284.9,-170.4,31.28,-197.3000000000029,-127.10000000000582
3130.0,31300.0,85501.0,75107.0,85635.8,75216.9,-256.8,-160.0,31.3,-134.8000000000029,-109.89999999999418
3132.0,31320.0,85568.0,75128.0,85634.9,75216.0,-213.0,-142.0,31.32,-66.89999999999418,-88.0
3134.0,31340.0,85642.0,75163.0,85634.8,75215.4,-156.1,-118.8,31.34,7.19999999999709,-52.39999999999418
3136.0,31360.0,85733.0,75200.0,85635.6,75215.2,-88.9,-90.5,31.36,97.39999999999418,-15.19999999999709
3138.0,31380.0,85807.0,75210.0,85637.1,75215.1,-12.9,-60.5,31.38,169.89999999999418,-5.100000000005821
3140.0,31400.0,85876.0,75222.0,85639.3,75215.2,66.6,-33.8,31.4,236.6999999999971,6.80000000000291
3142.0,31420.0,85935.0,75246.0,85642.1,75215.4,143.1,-11.8,31.42,292.8999999999942,30.60000000000582
3144.0,31440.0,85974.0,75251.0,85645.3,75215.7,212.2,6.1,31.44,328.6999999999971,35.30000000000291
3146.0,31460.0,86003.0,75252.0,85648.8,75216.0,270.2,19.9,31.46,354.1999999999971,36.0
3148.0,31480.0,86031.0,75251.0,85652.5,75216.4,316.0,29.3,31.48,378.5,34.60000000000582
3150.0,31500.0,86064.0,75261.0,85656.5,75216.8,351.5,36.1,31.5,407.5,44.19999999999709
3152.0,31520.0,86079.0,75252.0,85660.7,75217.2,379.0,40.9,31.52,418.3000000000029,34.80000000000291
3154.0,31540.0,86107.0,75256.0,85665.0,75217.6,400.5,42.0,31.54,442.0,38.39999999999418
3156.0,31560.0,86091.0,75274.0,85669.3,75218.1,417.1,41.7,31.56,421.6999999999971,55.89999999999418
3158.0,31580.0,86111.0,75251.0,85673.7,75218.4,426.8,41.7,31.58,437.3000000000029,32.60000000000582
3160.0,31600.0,86133.0,75262.0,85678.1,75218.8,433.2,40.0,31.6,454.8999999999942,43.19999999999709
3162.0,31620.0,86158.0,75279.0,85682.9,75219.4,441.4,40.7,31.62,475.1000000000058,59.60000000000582
3164.0,31640.0,86213.0,75302.0,85688.0,75220.2,456.0,47.8,31.64,525.0,81.80000000000291
3166.0,31660.0,86251.0,75324.0,85693.6,75221.2,480.0,60.3,31.66,557.3999999999942,102.80000000000291
3168.0,31680.0,86294.0,75353.0,85699.5,75222.4,510.8,77.0,31.68,594.5,130.60000000000582
3170.0,31700.0,86203.0,75331.0,85704.8,75223.6,539.7,95.9,31.7,498.1999999999971,107.39999999999418
3172.0,31720.0,85880.0,75188.0,85707.5,75223.6,529.8,99.9,31.72,172.5,-35.60000000000582
3174.0,31740.0,85569.0,75075.0,85706.8,75222.3,430.3,65.8,31.74,-137.8000000000029,-147.3000000000029
3176.0,31760.0,85294.0,74975.0,85703.5,75220.1,241.0,-4.1,31.76,-409.5,-245.10000000000582
3178.0,31780.0,86003.0,75252.0,85702.4,75219.0,15.6,-85.6,31.78,300.6000000000058,33.0
3180.0,31800.0,85053.0,74890.0,85696.1,75215.8,-143.0,-141.4,31.8,-643.1000000000058,-325.8000000000029
3182.0,31820.0,85076.0,74906.0,85689.8,75212.6,-322.4,-206.2,31.82,-613.8000000000029,-306.6000000000058
3184.0,31840.0,85161.0,74962.0,85684.3,75209.9,-468.9,-257.1,31.84,-523.3000000000029,-247.89999999999418
3186.0,31860.0,85281.0,75018.0,85680.0,75207.9,-539.9,-275.1,31.86,-399.0,-189.89999999999418
3188.0,31880.0,85382.0,75072.0,85676.8,75206.4,-531.7,-259.8,31.88,-294.8000000000029,-134.39999999999418
3190.0,31900.0,85465.0,75122.0,85674.5,75205.4,-466.7,-220.8,31.9,-209.5,-83.39999999999418
3192.0,31920.0,85577.0,75180.0,85673.2,75205.1,-370.8,-167.8,31.92,-96.19999999999709,-25.10000000000582
3194.0,31940.0,85664.0,75204.0,85673.0,75205.0,-259.2,-110.5,31.94,-9.0,-1.0
3196.0,31960.0,85723.0,75210.0,85673.5,75205.0,-146.5,-59.9,31.96,49.5,5.0
3198.0,31980.0,85758.0,75216.0,85674.2,75205.1,-49.1,-22.5,31.98,83.80000000000291,10.89999999999418
3200.0,32000.0,85754.0,75192.0,85675.0,75205.0,23.7,0.1,32.0,79.0,-13.0
3202.0,32020.0,85696.0,75156.0,85675.3,75204.6,64.2,5.3,32.02,20.69999999999709,-48.60000000000582
3204.0,32040.0,85640.0,75137.0,85675.1,75204.1,68.0,-5.1,32.04,-35.10000000000582,-67.10000000000582
3206.0,32060.0,85624.0,75135.0,85674.6,75203.4,43.8,-24.2,32.06,-50.60000000000582,-68.39999999999418
3208.0,32080.0,85603.0,75131.0,85673.9,75202.6,8.5,-44.0,32.08,-70.89999999999418,-71.60000000000582
3210.0,32100.0,85623.0,75148.0,85673.3,75202.0,-24.9,-59.2,32.1,-50.30000000000291,-54.0
3212.0,32120.0,85658.0,75169.0,85673.1,75201.6,-44.8,-64.8,32.12,-15.10000000000582,-32.60000000000582
3214.0,32140.0,85732.0,75187.0,85673.4,75201.4,-43.4,-58.7,32.14,58.60000000000582,-14.39999999999418
3216.0,32160.0,85789.0,75210.0,85674.4,75201.5,-18.0,-43.5,32.16,114.60000000000582,8.5
3218.0,32180.0,85846.0,75244.0,85675.9,75201.9,25.6,-21.9,32.18,170.10000000000582,42.10000000000582
3220.0,32200.0,85927.0,75269.0,85678.2,75202.4,81.9,3.8,32.2,248.8000000000029,66.60000000000582
3222.0,32220.0,86005.0,75307.0,85681.3,75203.4,149.8,31.2,32.22,323.6999999999971,103.60000000000582
3224.0,32240.0,86069.0,75337.0,85685.0,75204.6,223.8,60.3,32.24,384.0,132.39999999999418
3226.0,32260.0,86139.0,75346.0,85689.4,75206.0,296.4,89.1,32.26,449.6000000000058,140.0
3228.0,32280.0,86216.0,75378.0,85694.4,75207.6,366.8,115.1,32.28,521.6000000000058,170.39999999999418
3230.0,32300.0,86241.0,75386.0,85699.8,75209.4,433.5,139.6,32.3,541.1999999999971,176.60000000000582
3232.0,32320.0,86269.0,75385.0,85705.4,75211.2,488.2,159.8,32.32,563.6000000000058,173.8000000000029
3234.0,32340.0,86282.0,75385.0,85711.1,75213.0,528.8,172.9,32.34,570.8999999999942,172.0
3236.0,32360.0,86282.0,75393.0,85716.8,75214.8,556.8,179.4,32.36,565.1999999999971,178.1999999999971
3238.0,32380.0,86283.0,75420.0,85722.5,75216.7,571.1,182.8,32.38,560.5,203.3000000000029
3240.0,32400.0,86313.0,75413.0,85728.4,75218.6,576.8,186.8,32.4,584.6000000000058,194.39999999999418
3242.0,32420.0,86354.0,75426.0,85734.5,75220.7,583.1,190.5,32.42,619.5,205.3000000000029
3244.0,32440.0,86368.0,75435.0,85740.8,75222.8,593.5,195.9,32.44,627.1999999999971,212.1999999999971
3246.0,32460.0,86428.0,75450.0,85747.4,75225.1,608.3,204.6,32.46,680.6000000000058,224.89999999999418
3248.0,32480.0,86441.0,75445.0,85754.3,75227.4,631.1,214.7,32.48,686.6999999999971,217.60000000000582
3250.0,32500.0,86204.0,75342.0,85759.6,75228.9,644.3,216.4,32.5,444.3999999999942,113.10000000000582
3252.0,32520.0,85863.0,75225.0,85761.5,75229.1,590.7,187.8,32.52,101.5,-4.100000000005821
3254.0,32540.0,85605.0,75092.0,85760.5,75227.9,441.9,120.6,32.54,-155.5,-135.89999999999418
3256.0,32560.0,85427.0,75028.0,85757.6,75225.9,226.8,25.8,32.56,-330.6000000000058,-197.89999999999418
3258.0,32580.0,85320.0,74989.0,85753.5,75223.6,-4.3,-71.8,32.58,-433.5,-234.60000000000582
3260.0,32600.0,85334.0,74991.0,85749.2,75221.5,-205.4,-149.4,32.6,-415.1999999999971,-230.5
3262.0,32620.0,85391.0,75014.0,85745.4,75219.4,-341.4,-198.0,32.62,-354.3999999999942,-205.39999999999418
3264.0,32640.0,85482.0,75073.0,85742.6,75217.9,-398.5,-215.9,32.64,-260.6000000000058,-144.89999999999418
3266.0,32660.0,85585.0,75137.0,85740.8,75216.9,-383.8,-204.2,32.66,-155.8000000000029,-79.89999999999418
3268.0,32680.0,85695.0,75157.0,85740.1,75216.1,-316.2,-171.1,32.68,-45.10000000000582,-59.10000000000582
3270.0,32700.0,85777.0,75192.0,85740.3,75215.7,-218.1,-130.0,32.7,36.69999999999709,-23.69999999999709
3272.0,32720.0,85922.0,75229.0,85741.7,75215.8,-107.3,-86.3,32.72,180.3000000000029,13.19999999999709
3274.0,32740.0,86029.0,75261.0,85744.3,75216.3,11.8,-40.3,32.74,284.6999999999971,44.69999999999709
3276.0,32760.0,86031.0,75246.0,85747.2,75216.7,126.4,0.8,32.76,283.8000000000029,29.30000000000291
3278.0,32780.0,85985.0,75235.0,85749.7,75217.0,212.1,26.8,32.78,235.3000000000029,18.0
3280.0,32800.0,85894.0,75236.0,85751.3,75217.0,250.2,34.3,32.8,142.6999999999971,19.0
3282.0,32820.0,85820.0,75163.0,85752.3,75216.5,238.8,25.4,32.82,67.69999999999709,-53.5
3284.0,32840.0,85758.0,75149.0,85752.5,75215.7,190.7,0.6,32.84,5.5,-66.69999999999709
3286.0,32860.0,85731.0,75116.0,85752.4,75214.8,124.4,-29.2,32.86,-21.39999999999418,-98.80000000000291
3288.0,32880.0,85742.0,75129.0,85752.1,75214.1,59.6,-54.8,32.88,-10.10000000000582,-85.10000000000582
3290.0,32900.0,85753.0,75132.0,85752.1,75213.3,13.4,-70.8,32.9,0.8999999999941792,-81.30000000000291
3292.0,32920.0,85798.0,75176.0,85752.4,75212.9,-7.7,-76.2,32.92,45.60000000000582,-36.89999999999418
3294.0,32940.0,85843.0,75221.0,85753.2,75212.8,-2.3,-68.4,32.94,89.80000000000291,8.19999999999709
3296.0,32960.0,85911.0,75229.0,85754.7,75212.9,27.0,-48.8,32.96,156.3000000000029,16.10000000000582
3298.0,32980.0,85977.0,75263.0,85756.7,75213.2,73.6,-24.6,32.98,220.3000000000029,49.80000000000291
3300.0,33000.0,86034.0,75283.0,85759.3,75213.8,130.2,3.3,33.0,274.6999999999971,69.19999999999709
3302.0,33020.0,86102.0,75290.0,85762.5,75214.7,190.9,33.1,33.02,339.5,75.30000000000291
3304.0,33040.0,86109.0,75287.0,85765.9,75215.5,250.6,58.6,33.04,343.1000000000058,71.5
3306.0,33060.0,86146.0,75327.0,85769.6,75216.6,300.0,77.0,33.06,376.3999999999942,110.39999999999418
3308.0,33080.0,86147.0,75347.0,85773.4,75217.8,338.5,92.2,33.08,373.6000000000058,129.1999999999971
3310.0,33100.0,86151.0,75334.0,85777.3,75218.9,365.8,104.8,33.1,373.6999999999971,115.10000000000582
3312.0,33120.0,86143.0,75346.0,85781.0,75220.1,381.1,112.2,33.12,362.0,125.89999999999418
3314.0,33140.0,86142.0,75338.0,85784.6,75221.3,383.9,116.9,33.14,357.3999999999942,116.69999999999709
3316.0,33160.0,86149.0,75353.0,85788.2,75222.7,377.8,121.4,33.16,360.8000000000029,130.3000000000029
3318.0,33180.0,86137.0,75342.0,85791.7,75223.9,368.7,126.0,33.18,345.3000000000029,118.10000000000582
3320.0,33200.0,86133.0,75365.0,85795.0,75225.3,358.3,128.6,33.2,338.0,139.6999999999971
3322.0,33220.0,86124.0,75365.0,85798.4,75226.7,349.1,132.1,33.22,325.6000000000058,138.3000000000029
3324.0,33240.0,86044.0,75309.0,85801.3,75227.7,338.8,132.0,33.24,242.6999999999971,81.30000000000291
3326.0,33260.0,85797.0,75207.0,85801.9,75227.7,302.7,114.9,33.26,-4.899999999994179,-20.69999999999709
3328.0,33280.0,85526.0,75079.0,85799.9,75226.5,205.7,69.9,33.28,-273.8999999999942,-147.5
3330.0,33300.0,85281.0,74970.0,85795.2,75224.3,39.5,-3.3,33.3,-514.1999999999971,-254.3000000000029
3332.0,33320.0,85108.0,74901.0,85788.7,75221.3,-173.5,-95.6,33.32,-680.6999999999971,-320.3000000000029
3334.0,33340.0,85054.0,74898.0,85781.4,75218.1,-390.4,-188.2,33.34,-727.3999999999942,-320.1000000000058
3336.0,33360.0,85079.0,74924.0,85774.3,75215.0,-564.0,-259.8,33.36,-695.3000000000029,-291.0
3338.0,33380.0,85172.0,74956.0,85768.2,75212.3,-663.5,-298.5,33.38,-596.1999999999971,-256.3000000000029
3340.0,33400.0,85240.0,74998.0,85762.8,75210.0,-684.5,-304.1,33.4,-522.8000000000029,-212.0
3342.0,33420.0,85342.0,75016.0,85758.4,75208.1,-647.5,-282.9,33.42,-416.3999999999942,-192.10000000000582
3344.0,33440.0,85427.0,75062.0,85754.8,75206.6,-573.6,-247.2,33.44,-327.8000000000029,-144.60000000000582
3346.0,33460.0,85472.0,75080.0,85751.8,75205.2,-482.7,-206.4,33.46,-279.8000000000029,-125.19999999999709
3348.0,33480.0,85539.0,75117.0,85749.4,75204.4,-392.7,-166.4,33.48,-210.39999999999418,-87.39999999999418
3350.0,33500.0,85574.0,75130.0,85747.6,75203.5,-310.0,-130.1,33.5,-173.60000000000582,-73.5
3352.0,33520.0,85575.0,75127.0,85746.0,75202.8,-240.2,-102.0,33.52,-171.0,-75.80000000000291
3354.0,33540.0,85539.0,75110.0,85744.1,75201.8,-193.4,-85.5,33.54,-205.10000000000582,-91.80000000000291
3356.0,33560.0,85503.0,75074.0,85741.9,75200.7,-175.8,-81.4,33.56,-238.89999999999418,-126.69999999999709
3358.0,33580.0,85456.0,75054.0,85739.0,75199.3,-186.4,-89.6,33.58,-283.0,-145.3000000000029
3360.0,33600.0,85416.0,75034.0,85735.9,75197.7,-217.5,-107.2,33.6,-319.8999999999942,-163.6999999999971
3362.0,33620.0,85400.0,75052.0,85732.4,75196.2,-258.4,-127.1,33.62,-332.3999999999942,-144.1999999999971
3364.0,33640.0,85389.0,75043.0,85729.1,75194.6,-295.5,-142.1,33.64,-340.1000000000058,-151.60000000000582
3366.0,33660.0,85431.0,75056.0,85726.0,75193.2,-318.6,-150.4,33.66,-295.0,-137.1999999999971
3368.0,33680.0,85463.0,75076.0,85723.3,75192.0,-321.7,-150.5,33.68,-260.3000000000029,-116.0
3370.0,33700.0,85523.0,75102.0,85721.2,75191.0,-304.5,-141.2,33.7,-198.1999999999971,-89.0
3372.0,33720.0,85583.0,75117.0,85719.6,75190.3,-269.6,-123.3,33.72,-136.60000000000582,-73.30000000000291
3374.0,33740.0,85618.0,75145.0,85718.5,75189.8,-222.0,-101.0,33.74,-100.5,-44.80000000000291
3376.0,33760.0,85670.0,75152.0,85717.8,75189.4,-170.5,-77.6,33.76,-47.80000000000291,-37.39999999999418
3378.0,33780.0,85693.0,75169.0,85717.5,75189.2,-119.5,-56.7,33.78,-24.5,-20.19999999999709
3380.0,33800.0,85719.0,75174.0,85717.5,75189.0,-73.1,-39.6,33.8,1.5,-15.0
3382.0,33820.0,85734.0,75188.0,85717.6,75188.9,-35.2,-26.3,33.82,16.39999999999418,-0.8999999999941792
3384.0,33840.0,85769.0,75193.0,85718.0,75188.9,-5.3,-15.3,33.84,51.0,4.100000000005821
3386.0,33860.0,85786.0,75186.0,85718.7,75189.0,20.8,-6.2,33.86,67.30000000000291,-3.0
3388.0,33880.0,85784.0,75212.0,85719.3,75189.1,42.2,0.6,33.88,64.69999999999709,22.89999999999418
3390.0,33900.0,85795.0,75212.0,85720.0,75189.4,56.8,8.4,33.9,75.0,22.60000000000582
3392.0,33920.0,85763.0,75206.0,85720.5,75189.6,64.9,15.6,33.92,42.5,16.39999999999418
3394.0,33940.0,85711.0,75187.0,85720.6,75189.6,62.6,18.3,33.94,-9.60000000000582,-2.6000000000058208
3396.0,33960.0,85521.0,75113.0,85719.2,75189.0,37.4,10.9,33.96,-198.1999999999971,-76.0
3398.0,33980.0,85259.0,75003.0,85715.4,75187.4,-37.7,-17.7,33.98,-456.3999999999942,-184.39999999999418
3400.0,34000.0,84958.0,74859.0,85708.5,75184.5,-181.8,-76.3,34.0,-750.5,-325.5
3402.0,34020.0,84739.0,74788.0,85699.3,75180.7,-388.0,-163.0,34.02,-960.3000000000029,-392.6999999999971
3404.0,34040.0,84657.0,74743.0,85689.1,75176.5,-616.8,-257.0,34.04,-1032.1000000000058,-433.5
3406.0,34060.0,84653.0,74760.0,85678.8,75172.3,-814.9,-337.8,34.06,-1025.800000000003,-412.3000000000029
3408.0,34080.0,84697.0,74784.0,85668.9,75168.3,-947.5,-391.0,34.08,-971.8999999999942,-384.3000000000029
3410.0,34100.0,84760.0,74812.0,85659.7,75164.6,-1006.3,-411.4,34.1,-899.6999999999971,-352.6000000000058
3412.0,34120.0,84822.0,74837.0,85651.1,75161.3,-1002.3,-405.1,34.12,-829.1000000000058,-324.3000000000029
3414.0,34140.0,84880.0,74842.0,85643.3,75158.1,-956.1,-382.5,34.14,-763.3000000000029,-316.1000000000058
3416.0,34160.0,84919.0,74888.0,85636.0,75155.3,-887.9,-353.5,34.16,-717.0,-267.3000000000029
3418.0,34180.0,84988.0,74900.0,85629.3,75152.7,-814.1,-320.7,34.18,-641.3000000000029,-252.6999999999971
3420.0,34200.0,85011.0,74906.0,85623.1,75150.2,-740.8,-289.7,34.2,-612.1000000000058,-244.1999999999971
3422.0,34220.0,85023.0,74901.0,85617.2,75147.8,-675.9,-265.6,34.22,-594.1999999999971,-246.8000000000029
3424.0,34240.0,85021.0,74913.0,85611.3,75145.4,-627.2,-249.7,34.24,-590.3000000000029,-232.39999999999418
3426.0,34260.0,84995.0,74874.0,85605.2,75142.7,-598.5,-242.4,34.26,-610.1999999999971,-268.6999999999971
3428.0,34280.0,84943.0,74834.0,85598.7,75139.7,-591.8,-247.7,34.28,-655.6999999999971,-305.6999999999971
3430.0,34300.0,84918.0,74850.0,85592.0,75136.8,-604.8,-262.0,34.3,-674.0,-286.8000000000029
3432.0,34320.0,84899.0,74837.0,85585.1,75133.9,-627.5,-275.4,34.32,-686.1000000000058,-296.8999999999942
3434.0,34340.0,84905.0,74846.0,85578.3,75131.0,-650.4,-285.1,34.34,-673.3000000000029,-285.0
3436.0,34360.0,84923.0,74846.0,85571.7,75128.1,-664.9,-290.1,34.36,-648.6999999999971,-282.1000000000058
3438.0,34380.0,84950.0,74882.0,85565.4,75125.5,-666.3,-288.7,34.38,-615.3999999999942,-243.5
3440.0,34400.0,84984.0,74893.0,85559.6,75123.2,-653.2,-277.4,34.4,-575.6000000000058,-230.1999999999971
3442.0,34420.0,85031.0,74897.0,85554.1,75120.9,-626.8,-260.8,34.42,-523.1000000000058,-223.89999999999418
3444.0,34440.0,85060.0,74930.0,85549.1,75118.9,-591.1,-243.3,34.44,-489.1000000000058,-188.89999999999418
3446.0,34460.0,85099.0,74917.0,85544.6,75116.9,-548.9,-224.7,34.46,-445.6000000000058,-199.89999999999418
3448.0,34480.0,85129.0,74929.0,85540.3,75115.0,-504.0,-208.8,34.48,-411.3000000000029,-186.0
3450.0,34500.0,85147.0,74935.0,85536.4,75113.2,-461.7,-195.7,34.5,-389.3999999999942,-178.1999999999971
3452.0,34520.0,85172.0,74963.0,85532.6,75111.7,-425.5,-183.5,34.52,-360.6000000000058,-148.6999999999971
3454.0,34540.0,85187.0,74964.0,85529.1,75110.2,-395.5,-171.0,34.54,-342.1000000000058,-146.1999999999971
3456.0,34560.0,85201.0,74963.0,85525.7,75108.7,-370.5,-160.7,34.56,-324.6999999999971,-145.6999999999971
3458.0,34580.0,85203.0,74981.0,85522.5,75107.3,-349.9,-152.4,34.58,-319.5,-126.30000000000291
3460.0,34600.0,85221.0,74963.0,85519.5,75106.1,-332.0,-142.8,34.6,-298.5,-143.10000000000582
3462.0,34620.0,85222.0,74970.0,85516.6,75104.7,-315.2,-135.8,34.62,-294.6000000000058,-134.6999999999971
3464.0,34640.0,85146.0,74934.0,85513.2,75103.1,-305.1,-134.6,34.64,-367.1999999999971,-169.10000000000582
3466.0,34660.0,84905.0,74846.0,85507.9,75100.9,-322.7,-144.7,34.66,-602.8999999999942,-254.89999999999418
3468.0,34680.0,84697.0,74737.0,85500.6,75097.5,-397.3,-178.1,34.68,-803.6000000000058,-360.5
3470.0,34700.0,84440.0,74616.0,85490.7,75093.0,-534.9,-240.5,34.7,-1050.699999999997,-477.0
3472.0,34720.0,84241.0,74564.0,85478.6,75087.8,-725.7,-325.3,34.72,-1237.6000000000058,-523.8000000000029
3474.0,34740.0,84180.0,74522.0,85465.8,75082.3,-931.6,-411.8,34.74,-1285.800000000003,-560.3000000000029
3476.0,34760.0,84171.0,74537.0,85452.9,75076.8,-1105.2,-483.1,34.76,-1281.8999999999942,-539.8000000000029
3478.0,34780.0,84211.0,74553.0,85440.4,75071.5,-1219.5,-527.3,34.78,-1229.3999999999942,-518.5
3480.0,34800.0,84265.0,74596.0,85428.5,75066.7,-1268.5,-541.5,34.8,-1163.5,-470.6999999999971
3482.0,34820.0,84298.0,74600.0,85417.1,75062.0,-1262.8,-531.0,34.82,-1119.1000000000058,-462.0
3484.0,34840.0,84330.0,74615.0,85406.3,75057.5,-1222.2,-509.0,34.84,-1076.300000000003,-442.5
3486.0,34860.0,84388.0,74642.0,85395.9,75053.2,-1165.7,-482.4,34.86,-1007.8999999999942,-411.1999999999971
3488.0,34880.0,84452.0,74665.0,85386.5,75049.3,-1099.8,-452.7,34.88,-934.5,-384.3000000000029
3490.0,34900.0,84511.0,74683.0,85377.6,75045.7,-1028.6,-422.0,34.9,-866.6000000000058,-362.6999999999971
3492.0,34920.0,84525.0,74690.0,85369.1,75042.1,-958.8,-394.3,34.92,-844.1000000000058,-352.1000000000058
3494.0,34940.0,84538.0,74705.0,85360.7,75038.7,-900.6,-371.7,34.94,-822.6999999999971,-333.6999999999971
3496.0,34960.0,84510.0,74676.0,85352.2,75035.1,-859.7,-355.7,34.96,-842.1999999999971,-359.1000000000058
3498.0,34980.0,84483.0,74657.0,85343.6,75031.4,-839.3,-350.3,34.98,-860.6000000000058,-374.3999999999942
3500.0,35000.0,84462.0,74659.0,85334.9,75027.6,-836.5,-353.8,35.0,-872.8999999999942,-368.6000000000058
3502.0,35020.0,84463.0,74657.0,85326.3,75024.0,-842.4,-359.2,35.02,-863.3000000000029,-367.0
3504.0,35040.0,84504.0,74652.0,85317.9,75020.3,-847.2,-362.7,35.04,-813.8999999999942,-368.3000000000029
3506.0,35060.0,84521.0,74677.0,85309.9,75016.8,-842.4,-363.2,35.06,-788.8999999999942,-339.8000000000029
3508.0,35080.0,84592.0,74701.0,85302.5,75013.6,-824.7,-357.6,35.08,-710.5,-312.6000000000058
3510.0,35100.0,84616.0,74702.0,85295.6,75010.5,-790.3,-345.1,35.1,-679.6000000000058,-308.5
3512.0,35120.0,84671.0,74724.0,85289.2,75007.5,-745.6,-329.5,35.12,-618.1999999999971,-283.5
3514.0,35140.0,84716.0,74741.0,85283.4,75004.8,-693.8,-311.8,35.14,-567.3999999999942,-263.8000000000029
3516.0,35160.0,84764.0,74742.0,85278.1,75002.2,-638.7,-292.5,35.16,-514.1000000000058,-260.1999999999971
3518.0,35180.0,84782.0,74757.0,85273.2,74999.8,-584.1,-274.0,35.18,-491.1999999999971,-242.8000000000029
3520.0,35200.0,84819.0,74772.0,85268.5,74997.5,-536.0,-257.8,35.2,-449.5,-225.5
3522.0,35220.0,84858.0,74787.0,85264.3,74995.4,-493.5,-242.5,35.22,-406.3000000000029,-208.39999999999418
3524.0,35240.0,84869.0,74786.0,85260.4,74993.2,-454.7,-228.2,35.24,-391.3999999999942,-207.1999999999971
3526.0,35260.0,84880.0,74805.0,85256.5,74991.3,-423.2,-216.2,35.26,-376.5,-186.3000000000029
3528.0,35280.0,84900.0,74796.0,85252.9,74989.4,-398.1,-205.1,35.28,-352.8999999999942,-193.39999999999418
3530.0,35300.0,84917.0,74801.0,85249.6,74987.6,-374.4,-196.0,35.3,-332.6000000000058,-186.60000000000582
3532.0,35320.0,84905.0,74778.0,85246.2,74985.6,-354.5,-189.7,35.32,-341.1999999999971,-207.60000000000582
3534.0,35340.0,84799.0,74736.0,85242.1,74983.3,-347.3,-191.1,35.34,-443.1000000000058,-247.3000000000029
3536.0,35360.0,84610.0,74655.0,85236.2,74980.2,-373.5,-207.1,35.36,-626.1999999999971,-325.1999999999971
3538.0,35380.0,84352.0,74538.0,85228.1,74976.1,-455.1,-246.9,35.38,-876.1000000000058,-438.1000000000058
3540.0,35400.0,84134.0,74468.0,85217.7,74971.2,-598.7,-312.4,35.4,-1083.699999999997,-503.1999999999971
3542.0,35420.0,84012.0,74418.0,85205.9,74965.7,-781.2,-389.3,35.42,-1193.8999999999942,-547.6999999999971
3544.0,35440.0,83999.0,74410.0,85193.9,74960.2,-958.8,-460.5,35.44,-1194.8999999999942,-550.1999999999971
3546.0,35460.0,83989.0,74419.0,85182.0,74954.8,-1091.6,-511.4,35.46,-1193.0,-535.8000000000029
3548.0,35480.0,84046.0,74436.0,85170.5,74949.8,-1167.0,-535.2,35.48,-1124.5,-513.8000000000029
3550.0,35500.0,84099.0,74462.0,85159.7,74944.9,-1185.9,-536.3,35.5,-1060.699999999997,-482.8999999999942
3552.0,35520.0,84133.0,74482.0,85149.4,74940.2,-1161.6,-522.8,35.52,-1016.3999999999942,-458.1999999999971
3554.0,35540.0,84175.0,74513.0,85139.6,74935.8,-1113.2,-500.7,35.54,-964.6000000000058,-422.8000000000029
3556.0,35560.0,84229.0,74525.0,85130.3,74931.6,-1053.8,-473.3,35.56,-901.3000000000029,-406.6000000000058
3558.0,35580.0,84292.0,74558.0,85121.8,74927.8,-988.8,-443.5,35.58,-829.8000000000029,-369.8000000000029
3560.0,35600.0,84314.0,74546.0,85113.7,74924.1,-922.7,-413.8,35.6,-799.6999999999971,-378.1000000000058
3562.0,35620.0,84318.0,74559.0,85105.8,74920.5,-864.3,-389.5,35.62,-787.8000000000029,-361.5
3564.0,35640.0,84311.0,74548.0,85097.9,74916.8,-820.6,-372.6,35.64,-786.8999999999942,-368.8000000000029
3566.0,35660.0,84285.0,74540.0,85089.8,74913.1,-794.6,-364.2,35.66,-804.8000000000029,-373.1000000000058
3568.0,35680.0,84265.0,74553.0,85081.6,74909.4,-786.6,-362.9,35.68,-816.6000000000058,-356.3999999999942
3570.0,35700.0,84267.0,74527.0,85073.5,74905.5,-789.8,-365.0,35.7,-806.5,-378.5
3572.0,35720.0,84298.0,74536.0,85065.7,74901.8,-793.0,-368.6,35.72,-767.6999999999971,-365.8000000000029
3574.0,35740.0,84317.0,74539.0,85058.2,74898.2,-787.6,-369.1,35.74,-741.1999999999971,-359.1999999999971
3576.0,35760.0,84377.0,74560.0,85051.3,74895.0,-770.6,-363.4,35.76,-674.3000000000029,-335.0
3578.0,35780.0,84424.0,74581.0,85044.9,74891.8,-739.6,-351.3,35.78,-620.8999999999942,-310.8000000000029
3580.0,35800.0,84484.0,74595.0,85039.1,74888.8,-695.9,-335.3,35.8,-555.1000000000058,-293.8000000000029
3582.0,35820.0,84536.0,74637.0,85033.9,74886.1,-641.7,-316.9,35.82,-497.8999999999942,-249.10000000000582
3584.0,35840.0,84579.0,74625.0,85029.3,74883.5,-581.8,-295.8,35.84,-450.3000000000029,-258.5
3586.0,35860.0,84637.0,74632.0,85025.2,74881.0,-521.4,-277.7,35.86,-388.1999999999971,-249.0
3588.0,35880.0,84657.0,74635.0,85021.5,74878.5,-464.0,-262.9,35.88,-364.5,-243.5
3590.0,35900.0,84708.0,74644.0,85018.3,74876.2,-412.8,-250.7,35.9,-310.3000000000029,-232.1999999999971
3592.0,35920.0,84733.0,74637.0,85015.3,74873.8,-366.7,-241.3,35.92,-282.3000000000029,-236.8000000000029
3594.0,35940.0,84761.0,74657.0,85012.6,74871.7,-326.9,-234.4,35.94,-251.60000000000582,-214.6999999999971
3596.0,35960.0,84774.0,74680.0,85010.2,74869.6,-292.1,-227.1,35.96,-236.1999999999971,-189.60000000000582
3598.0,35980.0,84809.0,74667.0,85008.2,74867.6,-260.3,-217.6,35.98,-199.1999999999971,-200.60000000000582
3600.0,36000.0,84822.0,74680.0,85006.3,74865.6,-230.8,-209.2,36.0,-184.3000000000029,-185.60000000000582
3602.0,36020.0,84832.0,74665.0,85004.6,74863.7,-206.2,-200.7,36.02,-172.60000000000582,-198.6999999999971
3604.0,36040.0,84778.0,74638.0,85002.5,74861.6,-190.4,-195.1,36.04,-224.5,-223.60000000000582
3606.0,36060.0,84616.0,74547.0,84999.0,74858.8,-200.7,-202.0,36.06,-383.0,-311.8000000000029
3608.0,36080.0,84420.0,74484.0,84993.6,74855.2,-257.1,-231.9,36.08,-573.6000000000058,-371.1999999999971
3610.0,36100.0,84248.0,74426.0,84986.6,74851.0,-363.1,-281.0,36.1,-738.6000000000058,-425.0
3612.0,36120.0,84162.0,74391.0,84978.7,74846.5,-499.8,-339.4,36.12,-816.6999999999971,-455.5
3614.0,36140.0,84139.0,74419.0,84970.4,74842.0,-634.4,-392.6,36.14,-831.3999999999942,-423.0
3616.0,36160.0,84208.0,74449.0,84962.6,74838.0,-735.5,-423.5,36.16,-754.6000000000058,-389.0
3618.0,36180.0,84301.0,74509.0,84955.7,74834.7,-781.0,-423.9,36.18,-654.6999999999971,-325.6999999999971
3620.0,36200.0,84346.0,74537.0,84949.4,74831.7,-770.8,-397.9,36.2,-603.3999999999942,-294.6999999999971
3622.0,36220.0,84400.0,74578.0,84943.7,74829.1,-723.9,-357.7,36.22,-543.6999999999971,-251.10000000000582
3624.0,36240.0,84434.0,74595.0,84938.6,74826.7,-658.8,-314.8,36.24,-504.6000000000058,-231.6999999999971
3626.0,36260.0,84491.0,74594.0,84934.1,74824.3,-587.9,-278.1,36.26,-443.1000000000058,-230.3000000000029
3628.0,36280.0,84524.0,74596.0,84930.1,74822.0,-517.9,-251.5,36.28,-406.1000000000058,-226.0
3630.0,36300.0,84573.0,74578.0,84926.5,74819.7,-456.5,-234.5,36.3,-353.5,-241.6999999999971
3632.0,36320.0,84599.0,74581.0,84923.0,74817.3,-407.0,-226.7,36.32,-324.0,-236.3000000000029
3634.0,36340.0,84553.0,74565.0,84919.4,74814.9,-371.5,-225.9,36.34,-366.3999999999942,-249.89999999999418
3636.0,36360.0,84554.0,74571.0,84915.6,74812.4,-356.0,-230.4,36.36,-361.6000000000058,-241.39999999999418
3638.0,36380.0,84534.0,74572.0,84911.8,74810.0,-353.4,-236.0,36.38,-377.8000000000029,-238.0
3640.0,36400.0,84554.0,74573.0,84908.4,74807.6,-354.1,-239.2,36.4,-354.3999999999942,-234.60000000000582
3642.0,36420.0,84569.0,74583.0,84905.0,74805.3,-351.9,-239.2,36.42,-336.0,-222.3000000000029
3644.0,36440.0,84628.0,74597.0,84902.2,74803.2,-342.8,-234.5,36.44,-274.1999999999971,-206.1999999999971
3646.0,36460.0,84696.0,74619.0,84899.9,74801.4,-320.3,-223.2,36.46,-203.89999999999418,-182.39999999999418
3648.0,36480.0,84738.0,74637.0,84898.1,74799.8,-283.2,-206.7,36.48,-160.10000000000582,-162.8000000000029
3650.0,36500.0,84791.0,74683.0,84896.8,74798.5,-237.5,-186.7,36.5,-105.80000000000291,-115.5
3652.0,36520.0,84838.0,74687.0,84896.1,74797.3,-184.7,-163.3,36.52,-58.10000000000582,-110.30000000000291
3654.0,36540.0,84898.0,74707.0,84896.2,74796.3,-125.6,-139.9,36.54,1.8000000000029104,-89.30000000000291
3656.0,36560.0,84941.0,74730.0,84896.6,74795.6,-65.7,-116.8,36.56,44.39999999999418,-65.60000000000582
3658.0,36580.0,85010.0,74741.0,84897.6,74795.1,-9.3,-93.8,36.58,112.39999999999418,-54.10000000000582
3660.0,36600.0,85069.0,74757.0,84899.1,74794.7,44.8,-72.0,36.6,169.89999999999418,-37.69999999999709
3662.0,36620.0,85076.0,74760.0,84900.7,74794.4,94.9,-53.3,36.62,175.3000000000029,-34.39999999999418
3664.0,36640.0,85078.0,74764.0,84902.4,74794.1,133.9,-39.7,36.64,175.60000000000582,-30.10000000000582
3666.0,36660.0,85089.0,74765.0,84904.3,74793.8,160.3,-31.7,36.66,184.6999999999971,-28.80000000000291
3668.0,36680.0,85119.0,74767.0,84906.5,74793.6,180.7,-27.6,36.68,212.5,-26.60000000000582
3670.0,36700.0,85125.0,74790.0,84908.7,74793.5,199.4,-24.5,36.7,216.3000000000029,-3.5
3672.0,36720.0,85176.0,74773.0,84911.3,74793.3,216.0,-19.6,36.72,264.6999999999971,-20.30000000000291
3674.0,36740.0,85215.0,74790.0,84914.2,74793.3,234.4,-14.6,36.74,300.8000000000029,-3.3000000000029104
3676.0,36760.0,85174.0,74768.0,84916.8,74793.2,253.3,-9.8,36.76,257.1999999999971,-25.19999999999709
3678.0,36780.0,85024.0,74689.0,84918.2,74792.4,254.7,-14.2,36.78,105.80000000000291,-103.39999999999418
3680.0,36800.0,84814.0,74590.0,84917.7,74790.6,211.0,-41.2,36.8,-103.69999999999709,-200.60000000000582
3682.0,36820.0,84664.0,74522.0,84915.6,74788.0,113.4,-93.9,36.82,-251.60000000000582,-266.0
3684.0,36840.0,84575.0,74486.0,84912.5,74785.1,-18.1,-159.5,36.84,-337.5,-299.1000000000058
3686.0,36860.0,84581.0,74487.0,84909.1,74782.1,-150.6,-221.1,36.86,-328.1000000000058,-295.1000000000058
3688.0,36880.0,84628.0,74503.0,84906.1,74779.3,-249.2,-264.2,36.88,-278.1000000000058,-276.3000000000029
3690.0,36900.0,84669.0,74533.0,84903.7,74776.8,-296.6,-283.5,36.9,-234.6999999999971,-243.8000000000029
3692.0,36920.0,84753.0,74551.0,84901.9,74774.5,-297.8,-281.0,36.92,-148.89999999999418,-223.5
3694.0,36940.0,84798.0,74577.0,84900.8,74772.5,-261.8,-264.8,36.94,-102.80000000000291,-195.5
3696.0,36960.0,84827.0,74584.0,84900.1,74770.6,-205.2,-241.2,36.96,-73.10000000000582,-186.60000000000582
3698.0,36980.0,84866.0,74590.0,84899.7,74768.8,-145.3,-216.6,36.98,-33.69999999999709,-178.8000000000029
3700.0,37000.0,84923.0,74608.0,84899.8,74767.2,-89.2,-195.0,37.0,23.19999999999709,-159.1999999999971
3702.0,37020.0,84955.0,74622.0,84900.3,74765.8,-37.6,-175.6,37.02,54.69999999999709,-143.8000000000029
3704.0,37040.0,84947.0,74628.0,84900.7,74764.3,5.0,-159.5,37.04,46.30000000000291,-136.3000000000029
3706.0,37060.0,84929.0,74610.0,84901.1,74762.8,32.2,-149.2,37.06,27.89999999999418,-152.8000000000029
3708.0,37080.0,84903.0,74586.0,84901.1,74761.1,41.4,-147.3,37.08,1.8999999999941792,-175.10000000000582
3710.0,37100.0,84882.0,74570.0,84901.0,74759.2,34.5,-154.3,37.1,-19.0,-189.1999999999971
3712.0,37120.0,84878.0,74576.0,84900.7,74757.3,17.3,-165.6,37.12,-22.69999999999709,-181.3000000000029
3714.0,37140.0,84901.0,74573.0,84900.6,74755.5,0.6,-175.0,37.14,0.39999999999417923,-182.5
3716.0,37160.0,84932.0,74588.0,84900.8,74753.7,-6.1,-180.3,37.16,31.19999999999709,-165.6999999999971
3718.0,37180.0,84967.0,74601.0,84901.3,74752.2,0.3,-179.3,37.18,65.69999999999709,-151.1999999999971
3720.0,37200.0,85010.0,74619.0,84902.3,74750.8,19.6,-171.8,37.2,107.69999999999709,-131.8000000000029
3722.0,37220.0,85063.0,74633.0,84903.8,74749.5,51.3,-159.0,37.22,159.1999999999971,-116.5
3724.0,37240.0,85100.0,74645.0,84905.7,74748.4,93.0,-143.3,37.24,194.3000000000029,-103.39999999999418
3726.0,37260.0,85137.0,74651.0,84907.9,74747.5,137.4,-125.7,37.26,229.10000000000582,-96.5
3728.0,37280.0,85172.0,74657.0,84910.5,74746.6,180.7,-109.6,37.28,261.5,-89.60000000000582
3730.0,37300.0,85210.0,74661.0,84913.4,74745.8,220.3,-97.8,37.3,296.6000000000058,-84.80000000000291
3732.0,37320.0,85205.0,74680.0,84916.2,74745.0,252.7,-89.5,37.32,288.8000000000029,-65.0
3734.0,37340.0,85221.0,74651.0,84919.2,74744.0,275.2,-84.0,37.34,301.8000000000029,-93.0
3736.0,37360.0,85230.0,74657.0,84922.3,74743.2,291.1,-83.1,37.36,307.6999999999971,-86.19999999999709
3738.0,37380.0,85237.0,74655.0,84925.4,74742.3,301.8,-83.4,37.38,311.6000000000058,-87.30000000000291
3740.0,37400.0,85243.0,74661.0,84928.5,74741.6,308.1,-82.7,37.4,314.5,-80.60000000000582
3742.0,37420.0,85249.0,74669.0,84931.7,74740.8,312.0,-80.6,37.42,317.3000000000029,-71.80000000000291
3744.0,37440.0,85264.0,74664.0,84935.0,74740.1,315.5,-78.4,37.44,329.0,-76.10000000000582
3746.0,37460.0,85263.0,74685.0,84938.3,74739.5,319.7,-75.8,37.46,324.6999999999971,-54.5
3748.0,37480.0,85279.0,74678.0,84941.6,74738.9,323.7,-70.7,37.48,337.3999999999942,-60.89999999999418
3750.0,37500.0,85206.0,74651.0,84944.5,74738.0,324.2,-67.6,37.5,261.5,-87.0
3752.0,37520.0,85039.0,74573.0,84945.9,74736.6,304.0,-74.8,37.52,93.10000000000582,-163.60000000000582
3754.0,37540.0,84908.0,74497.0,84945.9,74734.5,242.1,-99.8,37.54,-37.89999999999418,-237.5
3756.0,37560.0,84771.0,74454.0,84944.5,74731.8,142.4,-143.3,37.56,-173.5,-277.8000000000029
3758.0,37580.0,84714.0,74425.0,84942.3,74728.8,22.7,-195.8,37.58,-228.3000000000029,-303.8000000000029
3760.0,37600.0,84703.0,74443.0,84939.9,74725.9,-89.9,-243.7,37.6,-236.89999999999418,-282.8999999999942
3762.0,37620.0,84753.0,74451.0,84938.0,74723.1,-170.3,-274.5,37.62,-185.0,-272.1000000000058
3764.0,37640.0,84796.0,74477.0,84936.4,74720.6,-207.0,-285.3,37.64,-140.39999999999418,-243.60000000000582
3766.0,37660.0,84816.0,74488.0,84935.2,74718.2,-205.9,-279.7,37.66,-119.19999999999709,-230.1999999999971
3768.0,37680.0,84871.0,74515.0,84934.4,74716.2,-180.9,-262.6,37.68,-63.39999999999418,-201.1999999999971
3770.0,37700.0,84887.0,74522.0,84933.9,74714.2,-142.0,-240.1,37.7,-46.89999999999418,-192.1999999999971
3772.0,37720.0,84913.0,74542.0,84933.7,74712.5,-99.9,-217.6,37.72,-20.69999999999709,-170.5
3774.0,37740.0,84960.0,74563.0,84933.8,74710.9,-60.6,-196.0,37.74,26.19999999999709,-147.89999999999418
3776.0,37760.0,84991.0,74560.0,84934.3,74709.4,-22.0,-176.4,37.76,56.69999999999709,-149.39999999999418
3778.0,37780.0,84991.0,74552.0,84934.9,74707.8,13.0,-162.0,37.78,56.10000000000582,-155.8000000000029
3780.0,37800.0,84968.0,74542.0,84935.3,74706.2,37.0,-155.1,37.8,32.69999999999709,-164.1999999999971
3782.0,37820.0,84965.0,74539.0,84935.5,74704.5,46.3,-154.2,37.82,29.5,-165.5
3784.0,37840.0,84945.0,74533.0,84935.7,74702.8,45.1,-156.7,37.84,9.30000000000291,-169.8000000000029
3786.0,37860.0,84947.0,74524.0,84935.8,74701.0,36.2,-161.7,37.86,11.19999999999709,-177.0
3788.0,37880.0,84956.0,74536.0,84935.9,74699.4,25.4,-167.1,37.88,20.10000000000582,-163.39999999999418
3790.0,37900.0,85000.0,74541.0,84936.5,74697.8,21.8,-168.0,37.9,63.5,-156.8000000000029
3792.0,37920.0,85029.0,74560.0,84937.2,74696.4,29.9,-164.2,37.92,91.80000000000291,-136.39999999999418
3794.0,37940.0,85038.0,74582.0,84938.2,74695.2,46.5,-155.6,37.94,99.80000000000291,-113.19999999999709
3796.0,37960.0,85092.0,74593.0,84939.6,74694.1,68.7,-142.4,37.96,152.39999999999418,-101.10000000000582
3798.0,37980.0,85113.0,74603.0,84941.2,74693.1,98.1,-126.9,37.98,171.8000000000029,-90.10000000000582
3800.0,38000.0,85140.0,74611.0,84943.1,74692.3,129.7,-111.0,38.0,196.89999999999418,-81.30000000000291
3802.0,38020.0,85158.0,74628.0,84945.2,74691.6,159.0,-96.7,38.02,212.8000000000029,-63.60000000000582
3804.0,38040.0,85192.0,74622.0,84947.6,74690.9,185.6,-83.4,38.04,244.39999999999418,-68.89999999999418
3806.0,38060.0,85181.0,74621.0,84949.9,74690.2,209.3,-73.3,38.06,231.10000000000582,-69.19999999999709
3808.0,38080.0,85190.0,74618.0,84952.3,74689.6,225.5,-67.2,38.08,237.6999999999971,-71.60000000000582
3810.0,38100.0,85207.0,74629.0,84954.7,74688.9,235.1,-64.6,38.1,252.3000000000029,-59.89999999999418
3812.0,38120.0,85206.0,74631.0,84957.3,74688.3,242.8,-63.0,38.12,248.6999999999971,-57.30000000000291
3814.0,38140.0,85204.0,74641.0,84959.8,74687.8,248.5,-60.7,38.14,244.1999999999971,-46.80000000000291
3816.0,38160.0,85227.0,74647.0,84962.5,74687.4,252.2,-55.9,38.16,264.5,-40.39999999999418
3818.0,38180.0,85269.0,74672.0,84965.4,74687.2,258.6,-48.8,38.18,303.6000000000058,-15.19999999999709
3820.0,38200.0,85270.0,74669.0,84968.3,74687.0,269.7,-38.9,38.2,301.6999999999971,-18.0
3822.0,38220.0,85276.0,74688.0,84971.4,74687.0,281.4,-28.2,38.22,304.6000000000058,1.0
3824.0,38240.0,85266.0,74677.0,84974.3,74686.9,290.8,-17.7,38.24,291.6999999999971,-9.89999999999418
3826.0,38260.0,85167.0,74629.0,84976.6,74686.5,291.3,-13.5,38.26,190.39999999999418,-57.5
3828.0,38280.0,85003.0,74560.0,84977.4,74685.4,263.1,-24.7,38.28,25.60000000000582,-125.39999999999418
3830.0,38300.0,84797.0,74476.0,84976.1,74683.5,186.8,-57.5,38.3,-179.10000000000582,-207.5
3832.0,38320.0,84665.0,74421.0,84973.2,74680.9,61.8,-110.8,38.32,-308.1999999999971,-259.8999999999942
3834.0,38340.0,84562.0,74380.0,84969.4,74678.0,-85.7,-172.5,38.34,-407.3999999999942,-298.0
3836.0,38360.0,84561.0,74372.0,84965.3,74675.1,-225.8,-227.2,38.36,-404.3000000000029,-303.1000000000058
3838.0,38380.0,84581.0,74395.0,84961.4,74672.3,-329.1,-265.4,38.38,-380.3999999999942,-277.3000000000029
3840.0,38400.0,84613.0,74418.0,84957.8,74669.7,-383.4,-283.2,38.4,-344.8000000000029,-251.6999999999971
3842.0,38420.0,84630.0,74446.0,84954.5,74667.3,-395.7,-282.9,38.42,-324.5,-221.3000000000029
3844.0,38440.0,84641.0,74433.0,84951.4,74664.9,-381.7,-271.3,38.44,-310.3999999999942,-231.89999999999418
3846.0,38460.0,84672.0,74444.0,84948.5,74662.6,-355.8,-257.3,38.46,-276.5,-218.60000000000582
3848.0,38480.0,84696.0,74450.0,84946.0,74660.5,-324.9,-241.9,38.48,-250.0,-210.5
3850.0,38500.0,84728.0,74471.0,84943.7,74658.6,-292.1,-225.2,38.5,-215.6999999999971,-187.60000000000582
3852.0,38520.0,84736.0,74463.0,84941.6,74656.7,-260.2,-208.9,38.52,-205.60000000000582,-193.6999999999971
3854.0,38540.0,84734.0,74467.0,84939.6,74654.9,-233.3,-196.5,38.54,-205.60000000000582,-187.89999999999418
3856.0,38560.0,84703.0,74489.0,84937.3,74653.0,-216.1,-188.8,38.56,-234.3000000000029,-164.0
3858.0,38580.0,84707.0,74452.0,84937.6,74652.1,-173.9,-170.3,38.58,-230.60000000000582,-200.10000000000582
3860.0,38600.0,84689.0,74441.0,84935.2,74649.9,-142.1,-160.1,38.6,-246.1999999999971,-208.89999999999418
3862.0,38620.0,84685.0,74426.0,84932.6,74647.7,-156.3,-169.1,38.62,-247.60000000000582,-221.6999999999971
3864.0,38640.0,84702.0,74434.0,84930.2,74645.7,-186.6,-182.6,38.64,-228.1999999999971,-211.6999999999971
3866.0,38660.0,84705.0,74427.0,84927.9,74643.6,-212.6,-194.0,38.66,-222.89999999999418,-216.60000000000582
3868.0,38680.0,84727.0,74453.0,84925.8,74641.7,-225.6,-201.6,38.68,-198.8000000000029,-188.6999999999971
3870.0,38700.0,84745.0,74488.0,84924.0,74640.0,-223.9,-201.3,38.7,-179.0,-152.0
3872.0,38720.0,84781.0,74474.0,84922.5,74638.3,-209.2,-192.7,38.72,-141.5,-164.3000000000029
3874.0,38740.0,84815.0,74485.0,84921.4,74636.7,-184.8,-182.4,38.74,-106.39999999999418,-151.6999999999971
3876.0,38760.0,84827.0,74486.0,84920.3,74635.2,-156.4,-170.5,38.76,-93.30000000000291,-149.1999999999971
3878.0,38780.0,84869.0,74494.0,84919.6,74634.0,-128.1,-156.8,38.78,-50.60000000000582,-140.0
3880.0,38800.0,84877.0,74507.0,84919.1,74632.7,-99.5,-144.2,38.8,-42.10000000000582,-125.69999999999709
3882.0,38820.0,84887.0,74524.0,84918.8,74631.6,-73.7,-132.7,38.82,-31.80000000000291,-107.60000000000582
3884.0,38840.0,84887.0,74552.0,84918.5,74630.6,-52.5,-121.7,38.84,-31.5,-78.60000000000582
3886.0,38860.0,84907.0,74528.0,84918.4,74629.6,-35.6,-111.1,38.86,-11.39999999999418,-101.60000000000582
3888.0,38880.0,84911.0,74534.0,84918.4,74628.5,-21.7,-105.5,38.88,-7.399999999994179,-94.5
3890.0,38900.0,84939.0,74525.0,84918.5,74627.6,-10.2,-101.3,38.9,20.5,-102.60000000000582
3892.0,38920.0,84960.0,74530.0,84918.8,74626.8,1.6,-95.8,38.92,41.19999999999709,-96.80000000000291
3894.0,38940.0,84949.0,74523.0,84919.1,74625.8,13.3,-91.1,38.94,29.89999999999418,-102.80000000000291
3896.0,38960.0,84950.0,74557.0,84919.4,74625.1,23.2,-88.8,38.96,30.60000000000582,-68.10000000000582
3898.0,38980.0,84976.0,74577.0,84920.0,74624.5,32.6,-83.4,38.98,56.0,-47.5
3900.0,39000.0,85009.0,74577.0,84920.9,74623.9,45.5,-74.8,39.0,88.10000000000582,-46.89999999999418
3902.0,39020.0,85025.0,74584.0,84921.9,74623.4,62.5,-66.0,39.02,103.10000000000582,-39.39999999999418
3904.0,39040.0,85053.0,74582.0,84923.2,74623.1,81.4,-56.1,39.04,129.8000000000029,-41.10000000000582
3906.0,39060.0,85060.0,74582.0,84924.5,74622.8,100.1,-45.3,39.06,135.5,-40.80000000000291
3908.0,39080.0,84947.0,74539.0,84925.0,74622.2,110.1,-39.1,39.08,22.0,-83.19999999999709
3910.0,39100.0,84761.0,74465.0,84923.9,74620.9,86.8,-48.2,39.1,-162.89999999999418,-155.89999999999418
3912.0,39120.0,84496.0,74368.0,84920.3,74618.5,7.1,-81.8,39.12,-424.3000000000029,-250.5
3914.0,39140.0,84300.0,74273.0,84914.7,74615.2,-134.5,-142.0,39.14,-614.6999999999971,-342.1999999999971
3916.0,39160.0,84163.0,74230.0,84907.5,74611.4,-315.1,-219.6,39.16,-744.5,-381.3999999999942
3918.0,39180.0,84156.0,74205.0,84900.0,74607.3,-495.4,-294.7,39.18,-744.0,-402.3000000000029
3920.0,39200.0,84195.0,74223.0,84892.8,74603.5,-633.3,-350.8,39.2,-697.8000000000029,-380.5
3922.0,39220.0,84221.0,74236.0,84885.9,74599.9,-709.0,-379.7,39.22,-664.8999999999942,-363.8999999999942
3924.0,39240.0,84263.0,74265.0,84879.5,74596.5,-728.8,-384.9,39.24,-616.5,-331.5
3926.0,39260.0,84289.0,74297.0,84873.6,74593.4,-708.5,-373.5,39.26,-584.6000000000058,-296.3999999999942
3928.0,39280.0,84344.0,74301.0,84868.3,74590.4,-664.1,-351.6,39.28,-524.3000000000029,-289.3999999999942
3930.0,39300.0,84381.0,74326.0,84863.4,74587.6,-608.6,-327.0,39.3,-482.3999999999942,-261.6000000000058
3932.0,39320.0,84444.0,74335.0,84859.1,74585.1,-550.3,-301.1,39.32,-415.1000000000058,-250.10000000000582
3934.0,39340.0,84495.0,74353.0,84855.3,74582.8,-491.5,-275.3,39.34,-360.3000000000029,-229.8000000000029
3936.0,39360.0,84500.0,74352.0,84851.7,74580.6,-436.3,-252.4,39.36,-351.6999999999971,-228.60000000000582
3938.0,39380.0,84489.0,74360.0,84848.0,74578.4,-394.4,-235.4,39.38,-359.0,-218.39999999999418
3940.0,39400.0,84464.0,74345.0,84844.3,74576.0,-369.9,-225.5,39.4,-380.3000000000029,-231.0
3942.0,39420.0,84464.0,74336.0,84840.5,74573.6,-359.9,-223.9,39.42,-376.5,-237.60000000000582
3944.0,39440.0,84455.0,74342.0,84836.7,74571.2,-359.5,-227.4,39.44,-381.6999999999971,-229.1999999999971
3946.0,39460.0,84489.0,74338.0,84833.2,74568.9,-362.8,-230.8,39.46,-344.1999999999971,-230.89999999999418
3948.0,39480.0,84524.0,74349.0,84829.9,74566.7,-360.1,-231.0,39.48,-305.8999999999942,-217.6999999999971
3950.0,39500.0,84555.0,74365.0,84827.1,74564.7,-345.6,-225.8,39.5,-272.1000000000058,-199.6999999999971
3952.0,39520.0,84609.0,74405.0,84824.8,74563.0,-319.4,-214.4,39.52,-215.8000000000029,-158.0
3954.0,39540.0,84645.0,74413.0,84822.9,74561.5,-281.7,-196.1,39.54,-177.89999999999418,-148.5
3956.0,39560.0,84700.0,74428.0,84821.7,74560.2,-236.0,-175.9,39.56,-121.69999999999709,-132.1999999999971
3958.0,39580.0,84727.0,74443.0,84820.7,74558.9,-187.1,-156.3,39.58,-93.69999999999709,-115.89999999999418
3960.0,39600.0,84783.0,74455.0,84820.2,74557.9,-139.9,-137.6,39.6,-37.19999999999709,-102.89999999999418
3962.0,39620.0,84837.0,74466.0,84820.2,74557.0,-94.2,-120.6,39.62,16.80000000000291,-91.0
3964.0,39640.0,84850.0,74480.0,84820.4,74556.2,-49.7,-105.5,39.64,29.60000000000582,-76.19999999999709
3966.0,39660.0,84878.0,74488.0,84820.8,74555.5,-11.1,-91.7,39.66,57.19999999999709,-67.5
3968.0,39680.0,84883.0,74500.0,84821.5,74554.9,21.0,-78.9,39.68,61.5,-54.89999999999418
3970.0,39700.0,84922.0,74500.0,84822.4,74554.3,47.0,-68.4,39.7,99.60000000000582,-54.30000000000291
3972.0,39720.0,84925.0,74508.0,84823.4,74553.9,69.4,-60.3,39.72,101.60000000000582,-45.89999999999418
3974.0,39740.0,84948.0,74515.0,84824.5,74553.5,87.4,-52.9,39.74,123.5,-38.5
3976.0,39760.0,84954.0,74514.0,84825.8,74553.1,102.8,-46.6,39.76,128.1999999999971,-39.10000000000582
3978.0,39780.0,84960.0,74528.0,84827.1,74552.7,115.7,-41.8,39.78,132.89999999999418,-24.69999999999709
3980.0,39800.0,84995.0,74523.0,84828.7,74552.5,127.3,-35.5,39.8,166.3000000000029,-29.5
3982.0,39820.0,85014.0,74547.0,84830.5,74552.4,141.2,-28.6,39.82,183.5,-5.399999999994179
3984.0,39840.0,85035.0,74554.0,84832.5,74552.4,158.1,-20.1,39.84,202.5,1.6000000000058208
3986.0,39860.0,85056.0,74583.0,84834.7,74552.7,177.3,-9.6,39.86,221.3000000000029,30.30000000000291
3988.0,39880.0,85075.0,74580.0,84837.0,74552.9,197.3,3.2,39.88,238.0,27.10000000000582
3990.0,39900.0,85083.0,74563.0,84839.5,74553.1,216.1,14.2,39.9,243.5,9.89999999999418
3992.0,39920.0,84991.0,74542.0,84841.3,74553.1,226.8,18.0,39.92,149.6999999999971,-11.10000000000582
3994.0,39940.0,84829.0,74444.0,84841.7,74552.3,208.4,8.9,39.94,-12.69999999999709,-108.30000000000291
3996.0,39960.0,84598.0,74357.0,84839.8,74550.6,139.0,-24.4,39.96,-241.8000000000029,-193.60000000000582
3998.0,39980.0,84416.0,74272.0,84836.0,74548.0,10.5,-83.0,39.98,-420.0,-276.0
4000.0,40000.0,84307.0,74261.0,84830.8,74545.1,-155.3,-154.4,40.0,-523.8000000000029,-284.1000000000058
